GRIP Dielectric Profiling (DEP) and Electrical Conductivity (ECM) data

REFERENCES: 

Wolff, E.W., J.C. Moore, H.B. Clausen, and C.U. Hammer. 1997. Climatic
implications of background acidity and other chemistry derived from
electrical studies of the Greenland Ice Core Project ice core. Journal of
Geophysical Research 102:26325-26332.

Clausen, H.B., C.U. Hammer, J. Christensen, C.S. Hvidberg, D. Dahl-Jensen,
M.R. Legrand, and J.P. Steffensen. 1995. 1250 years of global volcanism as
revealed by central Greenland ice cores. Ice Core Studies of Global
Biogeochemical cycles, annecy, France, R. Delmas (ed.). NATO Advanced
Sciences Institutes Series 1, 30:175-194.

Wolff, E.W., J.C. Moore, H.B. Clausen, C.U. Hammer, J. Kipfstuhl, and K.
Fuhrer. 1995. Long-term changes in the acid and salt concentrations of the
Greenland Ice Core Project ice core from electrical stratigraphy. Journal
of Geophysical Research 100:16249-16263.

Moore, J.C., E.W. Wolff, H.B. Clausen, C.U. Hammer, M.R. Legrand, and K.
Fuhrer. 1994. Electrical response of the Summit-Greenland ice core to
ammonium, sulphuric acid, and hydrochloric acid. Geophysical Research
Letters 21:565-568.

GRIP Members. 1993. Climate instability during the last interglacial period
recorded in the GRIP ice core. Nature 364:203-207.

Taylor, K.C., C.U. Hammer, R.B. Alley, H.B. Clausen, D. Dahl-Jensen, A.J.
Gow, N.S. Gundestrup, J. Kipfstuhl, J.C. Moore, and E.D. Waddington. 1993.
Electrical conductivity measurements from the GISP2 and GRIP Greenland ice
cores. Nature 366:549-552.

Moore, J.C., R. Mulvaney, and J.G. Paren. 1989. Dielectric stratigraphy of
ice: a new technique for determining total ionic concentrations in polar
ice cores. Geophysical Research Letters 16:1177-1180.

Moore, J.C., and J.G. Paren. 1987. A new technique for dielectric logging
of Antarctic ice cores. Journal de Physique 48:C1/155-C1/160.

DATA DESCRIPTION: 

This file contains DEP (dielectric profiling) data and ECM (electrical
conductivity) from the GRIP ice core drilled at Summit, Greenland between
1990 and 1992.  The DEP data are reported as sigma infinity
(microsiemens/m), which is the high-frequency limit of the conductivity,
corrected to -15 degrees C.  The data start at 138 metres below the
surface, and continue to the bottom of the core, including several metres
of silty basal ice.  Each data point is an average over a 55 cm interval
(both top and bottom depths are given).  There are a few missing
datapoints.  The data have all the corrections described in Wolff et al.
(1995), except that large peaks from volcanic eruptions have not been
removed from this dataset (although they are generally not seen clearly in
these 55 cm averages).  Note that the level changes between 730 and 930 m
are believed to be spurious (Wolff, et al., 1995) due to poor temperature
correction. 

Sigma infinity has a pure ice background of 9 microsiemens/m, and responds
to the chemistry of the ice. The only components known to cause an
increased sigma infinity are acidity, ammonium and chloride (Wolff et al.
1995; Moore et al. 1994).  A calibration is given in Wolff et al. (1995). 
During warm periods, the DEP is mainly a record of acidity, while during
cold (glacial) periods it is responding mainly to ammonium and/or
chloride.  The ECM record also shown in Wolff et al. (1995) responds only
to acidity. ECM is calculated as H+ = 0.03 * I^2 and is given in units of
micromolarity (uM) = micromoles of H+ per kg.

NOTE Additional data:

ECM data from GRIP are also reported by Clausen (1997) (file gripecm.dat),
calculated in a slightly different way.

The DEP data are reported in detail in files dep1.dat ... dep10.dat. 

DATA: 			

Depth	DEP	ECM	Age
Top (m)	(uS/m)	(uM)	Top (yr BP)

138.05	18.9870	2.3240	466
138.60	20.4664	2.5689	469
139.15	22.1330	2.8183	471
139.70	20.6000	2.0998	474
140.25	20.4737	1.8131	477
140.80	20.2581	1.7144	479
141.35	17.0175	1.5050	482
141.90	19.6370	2.3101	484
142.45	21.7050	2.4432	487
143.00	23.3347	1.8249	489
143.55	20.4211	1.8140	491
144.10	20.2968	1.7142	494
144.65	17.9725	1.9961	496
145.20	15.6663	1.7783	499
145.75	18.5141	1.5618	501
146.30	18.6689	2.1745	504
146.85	21.3367	3.0563	506
147.40	19.0632	2.1215	508
147.95	19.3322	1.8962	511
148.50	18.9343	1.4869	513
149.05	19.8511	1.2693	516
149.60	19.7528	1.4698	518
150.15	19.4496	1.5011	521
150.70	19.4757	1.3584	523
151.25	19.2878	1.6917	526
151.80	19.7000	2.4994	529
152.35	20.1722	2.1482	531
152.90	19.1725	1.7895	534
153.45	18.8359	2.1949	536
154.00	20.5914	2.3906	539
154.55	20.2907	2.3811	541
155.10	20.1378	2.3839	543
155.65	19.0914	1.7694	546
156.20	19.4652	1.7026	548
156.75	19.0800	1.9991	551
157.30	18.6768	1.8750	553
157.85	19.0715	1.7458	556
158.40	19.5019	1.9149	558
158.95	22.3982	2.4546	560
159.50	20.8315	2.3544	563
160.05	21.7914	2.3994	565
160.60	19.9873	2.4970	568
161.15	19.9882	1.9039	571
161.70	19.8264	1.4771	574
162.25	18.5533	1.0787	576
162.80	18.9182	1.3182	579
163.35	19.2326	0.9531	582
163.90	18.8471	0.9751	584
164.45	18.1207	1.0404	587
165.00	19.3082	1.0857	590
165.55	18.1368	1.0719	592
166.10	19.1852	1.0146	595
166.65	18.3530	1.2691	598
167.20	18.2582	0.9844	600
167.75	18.8411	1.0945	603
168.30	21.5229	1.5723	606
168.85	21.1259	1.6474	608
169.40	20.4229	1.8316	611
169.95	18.4469	0.9430	613
170.50	20.2943	1.9091	616
171.05	18.3196	1.4146	619
171.60	20.9682	2.0755	621
172.15	20.6679	1.8521	624
172.70	20.6570	1.7200	626
173.25	19.7432	1.3931	629
173.80	18.1119	1.5089	632
174.35	19.1239	1.7428	634
174.90	19.7907	1.4788	637
175.45	19.2389	1.0729	640
176.00	18.0948	1.3234	642
176.55	19.5243	1.4096	645
177.10	17.3222	0.8451	647
177.65	20.5796	1.6207	650
178.20	19.5996	1.4803	652
178.75	18.2859	1.1627	655
179.30	18.6204	1.1711	657
179.85	19.3764	1.3327	660
180.40	20.8526	1.7750	662
180.95	23.0407	1.9061	665
181.50	20.4962	1.1185	667
182.05	18.3147	1.4596	670
182.60	17.9963	1.0890	672
183.15	19.3579	1.4064	675
183.70	17.0170	1.5203	677
184.25	19.2414	1.6138	680
184.80	21.0111	2.3985	682
185.35	18.8989	1.7536	685
185.90	18.9975	1.7102	687
186.45	19.5326	1.8611	690
187.00	36.6682	7.1303	693
187.55	17.1707	1.3088	696
188.10	19.7368	1.8462	698
188.65	19.5456	1.5117	701
189.20	17.7157	1.6026	703
189.75	18.0482	1.4205	706
190.30	16.7896	1.5710	709
190.85	16.5396	1.0153	711
191.40	17.7443	1.7514	714
191.95	19.3737	1.9548	716
192.50	18.9275	1.1883	719
193.05	20.4140	3.6332	721
194.70	17.3610	1.2927	729
195.25	20.2678	1.2689	731
195.80	20.4532	1.5513	734
196.35	17.2626	0.9978	737
196.90	17.9456	0.8283	739
197.45	18.2196	0.9417	742
198.00	20.1078	1.1871	744
198.55	20.4043	1.1575	747
199.10	19.0067	1.4914	749
199.65	22.6350	1.8636	752
200.20	18.0626	0.9792	754
200.75	15.8891	2.2209	757
201.30	13.2230	2.4366	759
201.85	14.3029	2.0682	762
202.40	16.8496	1.4898	765
202.95	19.4641	2.3392	768
203.50	25.0500	3.4402	770
204.05	18.5874	1.4850	773
204.60	18.1714	1.1079	775
205.15	20.4152	1.7278	778
205.70	22.5929	1.6491	781
206.25	18.3074	0.8405	783
206.80	17.4721	1.0357	786
207.35	17.8122	1.1368	788
207.90	17.5900	1.0637	791
208.45	17.8152	1.0376	794
209.00	17.4085	1.2952	796
209.55	19.0925	1.8606	799
210.10	18.2533	1.4403	802
210.65	19.2511	0.9952	805
211.20	19.9646	1.4407	807
211.75	21.2754	1.4357	810
212.30	20.8263	1.4683	812
212.85	19.5856	1.5589	815
213.40	20.3022	1.6804	817
213.95	20.3189	1.8951	820
214.50	21.2171	1.8040	823
215.05	21.9722	1.1895	825
215.60	20.6950	1.3395	828
216.15	21.4767	1.1622	830
216.70	19.9659	2.0371	833
217.25	19.2226	0.9701	836
217.80	20.5843	1.0819	838
218.35	20.4048	1.0262	841
218.90	22.6414	2.0483	844
219.45	25.0226	2.7962	847
220.00	18.8971	1.4015	850
220.55	20.2722	1.4489	852
221.10	20.2868	1.5631	855
221.65	19.4922	1.6832	858
222.20	21.0207	2.1559	860
222.75	19.3300	1.6886	863
223.30	20.6700	1.9804	865
223.85	20.2637	1.6567	868
224.40	18.4679	1.0659	870
224.95	16.6877	1.3868	873
225.50	19.2233	1.9105	875
226.05	17.4361	1.2827	878
226.60	18.7039	1.2028	881
227.15	22.2464	1.5400	883
227.70	20.2785	0.9922	886
228.25	19.5711	1.0329	889
228.80	21.3035	1.5138	891
229.35	19.5639	1.6901	894
229.90	18.4396	1.0948	896
230.45	20.0464	1.4482	899
231.00	19.4374	1.9371	902
231.55	20.4489	2.0548	905
232.10	18.7796	1.6312	907
232.65	19.1668	1.5380	910
233.20	18.8122	1.4145	912
233.75	19.7959	1.3262	915
234.30	18.8664	1.3041	918
234.85	19.5848	1.0454	920
235.40	18.9615	1.5125	923
235.95	20.4268	2.0010	926
236.50	21.3111	2.2769	928
237.05	18.5314	2.0316	931
237.60	18.9896	1.1058	933
238.15	20.0725	1.6271	936
238.70	20.6163	1.6109	939
239.25	19.1561	1.6186	941
239.80	19.2800	1.6236	944
240.35	21.1678	2.0353	947
240.90	21.3179	2.3224	949
241.45	20.2156	2.0802	952
242.00	20.0761	2.4084	955
242.55	22.9770	2.3721	957
243.10	22.7807	2.4033	960
243.65	20.4989	2.1541	963
244.20	19.6382	1.6880	965
244.75	17.9393	1.4722	968
245.30	18.8042	2.2081	971
245.85	19.4446	0.9512	974
246.40	19.0078	0.8844	976
246.95	20.8318	1.1796	978
247.50	21.7022	1.4215	981
248.05	20.1436	0.8440	984
248.60	19.4837	0.7433	986
249.15	19.2354	0.7458	989
249.70	18.8500	1.3424	991
250.25	18.2759	0.9342	994
250.80	21.5296	1.4223	996
251.35	19.8348	1.1568	998
251.90	19.2636	1.0346	1001
252.45	19.9259	1.6743	1004
253.00	18.6304	1.4126	1006
253.55	21.3685	1.9710	1009
254.10	21.6621	2.6909	1011
254.65	19.3845	2.0297	1014
255.20	20.5467	0.8162	1017
255.75	46.6932	9.6833	1019
256.30	23.2141	1.1493	1022
256.85	18.5675	1.2392	1025
257.40	18.8733	1.2525	1027
257.95	20.2375	1.7842	1030
258.50	19.9893	2.1118	1032
259.05	20.4815	1.9799	1035
259.60	20.8426	1.7234	1038
260.15	20.9957	1.7592	1040
260.70	22.5359	2.1360	1043
261.25	19.9196	1.7012	1046
261.80	20.1656	0.9854	1048
262.35	20.5618	1.0840	1051
262.90	20.2889	1.1465	1053
263.45	24.8896	2.6052	1056
264.00	20.9107	1.9287	1058
264.55	22.1482	2.1945	1061
265.10	21.0375	1.5332	1064
265.65	19.6704	1.5243	1066
266.20	19.9547	1.5287	1069
266.75	19.9400	1.3352	1072
267.30	20.8714	1.2939	1075
267.85	19.4558	1.7023	1077
268.40	22.8489	1.7926	1080
268.95	29.2904	3.3289	1083
269.50	22.9208	1.4333	1085
270.05	20.5671	1.3542	1088
270.60	21.0382	1.0777	1091
271.15	20.3243	0.9751	1093
271.70	19.2937	0.6342	1096
272.25	19.9963	1.3227	1099
272.80	23.3246	2.2696	1102
273.35	22.1448	1.9883	1105
273.90	22.3793	2.2025	1107
274.45	20.6678	1.0728	1110
275.00	20.6411	0.9097	1113
275.55	18.9500	0.5689	1115
276.10	20.8996	0.6359	1117
276.65	20.6654	0.5142	1120
277.20	20.3833	0.4995	1123
277.75	21.3661	0.4567	1125
278.30	18.8946	1.1443	1128
278.85	20.2068	1.2842	1131
279.40	22.2856	1.9463	1133
279.95	21.6300	1.2030	1136
280.50	22.5348	1.5069	1139
281.05	25.2800	1.9948	1141
281.60	22.8593	1.6589	1144
282.15	20.4356	1.2617	1147
282.70	18.0982	1.0010	1150
283.25	20.8582	1.6782	1152
283.80	20.0557	1.4005	1155
284.35	21.9507	1.9689	1158
284.90	21.5543	2.0550	1160
285.45	21.0126	2.1084	1163
286.00	18.9463	1.5020	1166
286.55	21.7479	1.3881	1168
287.10	23.4744	1.8873	1171
287.65	21.1143	1.7262	1174
288.20	19.5470	1.3838	1176
288.75	21.8626	1.7518	1180
289.30	22.0293	1.5751	1182
289.85	20.2311	1.9078	1185
290.40	22.2356	2.3459	1187
290.95	19.6854	1.5254	1190
291.50	16.3156	1.1222	1192
292.05	21.1350	1.7692	1195
292.60	22.4178	2.2153	1197
293.15	19.2337	1.5933	1200
293.70	22.0225	2.0143	1203
294.25	22.3874	2.1492	1205
294.80	22.0525	2.3590	1208
295.35	25.4130	2.6810	1210
295.90	21.3978	1.9358	1213
296.45	20.1129	1.5796	1215
297.00	19.2554	1.3622	1218
297.55	18.1800	1.2456	1221
298.10	19.8886	1.4084	1223
298.65	21.2230	1.7321	1226
299.20	19.7364	1.7944	1229
299.75	21.2352	2.2150	1231
300.30	17.2861	1.1453	1234
300.85	18.7274	1.0490	1236
301.40	18.5261	1.0542	1239
301.95	19.3346	1.0403	1241
302.50	18.7161	1.1063	1244
303.05	18.4759	0.9091	1247
303.60	18.9254	0.9301	1249
304.15	19.4130	0.9722	1252
304.70	20.1430	0.9861	1255
305.25	20.5946	0.8840	1258
305.80	20.4682	1.8221	1261
306.35	19.8624	1.6174	1263
306.90	21.7943	1.6816	1266
307.45	19.3970	1.3399	1269
308.00	21.7439	0.6835	1271
308.55	22.9886	1.3285	1274
309.10	22.7943	2.0879	1277
309.65	22.2782	1.5718	1280
310.20	20.4611	1.3849	1283
310.75	21.8663	1.6360	1285
311.30	21.5189	1.6948	1288
311.85	21.4396	1.0298	1290
312.40	21.2248	1.3341	1293
312.95	20.0382	1.0531	1296
313.50	21.4648	1.7633	1298
314.05	20.4007	1.1090	1301
314.60	20.2959	1.2793	1304
315.15	20.0800	0.9325	1306
315.70	21.8911	1.7442	1309
316.25	21.7219	2.2817	1312
316.80	20.0393	1.0702	1315
317.35	20.0636	0.9821	1317
317.90	19.2857	1.2555	1320
318.45	18.9200	0.9742	1322
319.00	18.0211	0.4678	1325
319.55	23.7768	2.0101	1328
320.10	20.2059	1.1724	1331
320.65	30.0744	2.6528	1333
321.20	20.6570	1.4314	1336
321.75	19.7033	0.7980	1339
322.30	21.3454	0.6625	1342
322.85	18.9393	1.3369	1345
323.40	19.8596	1.3787	1347
323.95	21.1889	0.9234	1350
324.50	20.8825	0.8936	1353
325.05	20.0356	1.5320	1355
325.60	19.9496	1.4592	1358
326.15	20.3382	1.8865	1361
326.70	20.5361	1.7298	1363
327.25	19.9808	1.6732	1366
327.80	22.1348	2.0808	1369
328.35	22.6329	1.5932	1372
328.90	20.3089	1.7092	1375
329.45	20.3029	1.4884	1377
330.00	22.3359	2.0731	1380
330.55	19.3993	1.2177	1383
331.10	22.5096	2.1566	1386
331.65	25.6452	2.0179	1389
332.20	20.5240	1.2457	1392
332.75	22.6156	2.0744	1394
333.30	20.9346	1.6478	1397
333.85	18.4393	1.2278	1399
334.40	19.0554	1.0435	1402
334.95	19.6186	1.3534	1404
335.50	20.0689	1.1162	1407
336.05	16.2382	0.5280	1410
336.60	18.0564	0.9039	1412
337.15	19.9186	1.5371	1415
337.70	21.4404	2.1194	1418
338.25	23.3004	2.3626	1421
338.80	25.0421	2.6306	1423
339.35	30.4285	4.2959	1426
339.90	20.1489	1.6398	1429
340.45	21.3914	1.9491	1432
341.00	20.5082	0.9191	1435
341.55	19.5797	1.3509	1438
342.10	25.8282	2.6315	1440
342.65	21.7359	2.0008	1443
343.20	20.9036	1.7013	1446
343.75	20.1093	1.3879	1449
344.30	18.6774	1.2269	1452
344.85	21.5300	1.7405	1455
345.40	19.7570	1.3600	1458
345.95	19.6221	1.3869	1461
346.50	20.7493	1.7344	1463
347.05	19.5152	1.7178	1466
347.60	19.3839	1.6540	1469
348.15	19.1541	1.4878	1472
348.70	19.6357	1.5327	1475
349.25	21.6512	1.8104	1478
349.80	20.3775	1.7390	1480
350.35	20.0107	1.4098	1484
350.90	20.7075	1.9250	1486
351.45	20.4662	1.2219	1489
352.00	22.0093	1.0685	1492
352.55	21.2252	0.8972	1495
353.10	19.9721	1.4221	1497
353.65	21.6696	2.0621	1500
354.20	22.0472	0.9553	1503
354.75	21.5456	1.2169	1506
355.30	20.8425	1.3764	1509
355.85	22.0512	1.4973	1512
356.40	20.5136	1.8141	1514
356.95	20.8185	1.8502	1517
357.50	19.4036	1.5336	1519
358.05	20.9648	0.8129	1522
358.60	21.2415	1.4715	1525
359.15	20.9589	1.6120	1528
359.70	21.0852	1.6495	1531
360.25	20.6296	1.5796	1534
360.80	19.6307	1.3423	1536
361.35	20.5647	1.6037	1539
361.90	18.9367	0.9936	1542
362.45	20.8943	1.3168	1544
363.00	19.8650	1.1930	1547
363.55	20.3536	1.3771	1550
364.10	20.4448	1.5048	1553
364.65	18.7429	1.2909	1555
365.20	21.6437	1.4490	1558
365.75	21.1359	1.3894	1561
366.30	20.9848	1.6232	1563
366.85	20.1239	1.2976	1566
367.40	17.6552	0.9687	1569
367.95	16.5136	0.7656	1572
368.50	18.2663	1.1187	1574
369.05	19.5075	1.5371	1577
369.60	20.2544	1.6503	1580
370.15	19.8326	1.3630	1582
370.70	18.2825	0.9973	1585
371.25	19.4052	1.2598	1587
371.80	17.2325	0.8613	1590
372.35	19.6269	1.1581	1593
372.90	19.4952	1.2371	1596
373.45	19.5132	1.1416	1598
374.00	21.1956	1.3594	1601
374.55	17.9179	0.9294	1604
375.10	21.4743	1.2546	1607
375.65	21.9707	1.3902	1609
376.20	20.3815	1.0208	1612
376.75	19.3539	0.9229	1615
377.30	19.3356	0.9965	1618
377.85	20.6915	1.1384	1621
378.40	20.6411	1.1902	1624
378.95	18.6837	0.9329	1626
379.50	19.4889	1.2771	1629
380.60	19.9492	1.3104	1635
381.15	21.1659	1.7203	1638
381.70	20.4618	1.7894	1640
382.25	18.5793	1.2936	1643
382.80	18.6581	1.4320	1647
383.35	20.8607	2.3164	1649
383.90	19.0645	2.0355	1652
384.45	21.1600	2.1147	1655
385.00	20.2782	1.7614	1658
385.55	21.1296	1.1611	1661
386.10	20.8518	1.1930	1663
386.65	19.5263	1.2096	1666
387.20	19.7168	1.3354	1669
387.75	20.2930	0.9811	1672
388.30	19.5933	0.9570	1675
388.85	19.6868	1.2716	1678
389.40	21.8278	1.9852	1680
389.95	20.0304	1.1758	1683
390.50	22.2915	1.6890	1686
391.05	21.4121	1.4202	1689
391.60	21.4789	1.7823	1691
392.15	19.8221	1.4425	1694
392.70	20.8521	1.3902	1697
393.25	19.8515	1.3385	1700
393.80	25.6675	1.8825	1702
394.35	20.3526	1.2104	1705
394.90	21.1681	1.5030	1708
395.45	20.6139	1.2089	1711
396.00	20.5726	1.4072	1713
396.55	19.6893	1.3150	1716
397.10	19.2639	1.1337	1719
397.65	19.0370	0.8604	1722
398.20	19.9614	0.8623	1725
398.75	23.1785	1.2412	1728
399.30	20.9132	1.1269	1731
399.85	20.9330	1.0752	1734
400.40	22.5333	1.1932	1737
400.95	20.1771	0.8399	1740
401.50	21.4396	1.0727	1742
402.05	21.0100	1.4225	1745
402.60	22.0011	1.4859	1748
403.15	20.7543	1.1886	1751
403.70	20.6744	1.0530	1754
404.25	20.1352	1.1542	1757
404.80	20.9385	1.2504	1760
405.35	24.2746	2.0135	1763
405.90	21.9319	1.4927	1765
406.45	18.3793	0.9737	1768
407.00	19.0919	1.2800	1771
407.55	20.0241	1.1082	1774
408.10	20.5889	1.0204	1776
408.65	22.6596	1.4799	1779
409.20	18.3332	0.9842	1782
409.75	20.6237	1.4475	1785
410.30	20.5454	1.3009	1788
410.85	19.8719	1.3655	1791
411.40	17.1811	1.0542	1794
411.95	20.3289	1.6270	1797
412.50	21.9985	1.8367	1800
413.05	26.3693	2.8614	1803
413.60	20.2496	1.0673	1806
414.15	20.4415	1.0918	1809
414.70	23.8548	1.1562	1811
415.25	19.3761	0.8440	1814
415.80	20.0156	1.3374	1817
416.35	18.3654	1.1267	1820
416.90	18.9154	1.1856	1823
417.45	19.0807	1.3927	1825
418.00	21.6479	1.6304	1828
418.55	18.5089	1.0677	1831
419.10	21.0293	1.2062	1834
419.65	19.4374	1.4513	1837
420.20	20.6471	1.9028	1840
420.75	19.8948	1.5029	1843
421.30	20.7021	1.6907	1846
421.85	21.2415	1.3774	1848
422.40	20.4256	1.4037	1851
422.95	20.8186	1.3284	1854
423.50	21.0774	1.0403	1857
424.05	19.6707	1.4243	1860
424.60	19.0336	1.3301	1862
425.15	19.6885	1.3176	1865
425.70	19.6571	1.4542	1868
426.25	18.2200	1.2690	1871
426.80	20.7493	1.3563	1874
427.35	18.7222	1.0603	1876
427.90	20.3307	1.6283	1879
428.45	20.1082	1.5285	1882
429.00	26.2963	1.8970	1885
429.55	21.0904	1.1998	1887
430.10	17.9941	0.7873	1890
430.65	19.7829	1.3939	1893
431.20	18.9085	1.3896	1896
431.75	19.0445	1.1905	1899
432.30	17.9836	1.1026	1901
432.85	20.1989	1.4116	1904
433.40	21.3389	1.7396	1907
433.95	22.8152	1.9996	1909
434.50	19.4585	1.8668	1912
435.05	20.4079	1.3343	1915
435.60	18.6096	1.2256	1918
436.15	20.4462	1.2094	1921
436.70	20.3122	1.2008	1924
437.25	19.4561	1.1191	1926
437.80	21.5174	1.6765	1929
438.35	19.2857	0.9350	1932
438.90	18.2826	1.2676	1934
439.45	19.4411	1.3949	1937
440.00	19.4518	1.4372	1940
440.55	18.3830	1.4169	1943
441.10	18.3569	0.9802	1946
441.65	17.9100	1.0130	1949
442.20	19.4441	1.3702	1952
442.75	18.2971	1.3468	1955
443.30	18.2150	1.4697	1957
443.85	18.3639	1.6967	1960
444.40	19.9300	2.6493	1963
444.95	19.8364	2.2337	1966
445.50	18.6452	1.6032	1969
446.05	21.2430	1.9034	1972
446.60	19.9167	1.5471	1975
447.15	19.2075	1.2995	1978
447.70	17.5270	1.2009	1980
448.25	18.4904	1.3338	1983
448.80	19.4252	1.2465	1986
449.35	20.2507	1.4373	1989
449.90	19.3596	1.4429	1992
450.45	20.2421	2.1277	1995
451.00	20.2108	1.8637	1998
451.55	19.5021	1.6979	2000
452.10	19.6978	1.8563	2003
452.65	17.9082	0.8859	2006
453.20	17.0589	1.3794	2008
453.75	16.7132	1.4746	2011
454.30	18.8141	1.2711	2014
454.85	32.8721	4.3196	2017
455.40	21.2389	3.1878	2020
455.95	20.2018	1.6907	2024
456.50	19.8067	1.5747	2026
457.05	19.1257	1.3688	2030
457.60	20.8882	1.8172	2033
458.15	20.0504	1.3637	2035
458.70	20.0944	1.3445	2038
459.25	18.8043	1.2659	2041
459.80	19.8107	1.5665	2044
460.35	20.5337	1.7605	2048
460.90	19.7582	1.8622	2051
461.45	21.5436	2.5016	2053
462.00	20.4652	2.0894	2056
462.55	19.6182	1.9689	2059
463.10	20.8870	1.2376	2062
463.65	21.8130	1.0909	2065
464.20	19.8470	1.3364	2068
464.75	19.7968	1.1786	2071
465.30	19.3989	1.4636	2074
465.85	19.4714	1.4685	2076
466.40	20.2748	1.2897	2079
466.95	19.7644	1.2615	2082
467.50	18.2636	1.1678	2085
468.05	19.6111	1.5304	2088
468.60	18.1015	1.6528	2091
471.35	19.1304	1.4374	2106
471.90	19.6289	1.3772	2109
472.45	19.7807	1.7471	2112
473.00	18.9822	1.4554	2114
473.55	21.1811	2.1911	2117
474.10	25.4148	2.9095	2120
474.65	23.1011	1.9703	2123
475.20	19.4763	1.7392	2126
475.75	21.1629	2.1264	2129
476.30	19.2569	1.1844	2132
476.85	20.7918	0.8471	2135
477.40	22.3567	1.1376	2138
477.95	17.4636	1.0184	2140
478.50	20.3942	1.7186	2143
479.05	22.4254	1.5480	2146
479.60	17.9407	0.9920	2149
480.15	16.6671	0.6536	2152
480.70	15.7541	0.6335	2155
481.25	19.7426	0.8148	2158
481.80	16.4279	0.3985	2161
482.35	21.5893	0.9290	2164
482.90	17.8000	0.7195	2167
483.45	17.3389	0.8575	2170
484.00	18.6989	1.2236	2173
484.55	19.0196	1.3058	2176
485.10	18.1244	1.0921	2179
485.65	18.9221	1.2704	2182
486.20	22.4744	1.2970	2185
486.75	20.2261	0.9102	2188
487.30	19.7563	1.0700	2191
487.85	19.7196	1.1406	2194
488.40	19.2763	0.9338	2197
488.95	20.0382	1.1888	2200
489.50	19.7029	0.9492	2203
490.05	20.8137	0.9358	2205
490.60	18.7231	0.6951	2208
491.15	20.2604	0.8000	2212
491.70	19.9856	0.9869	2215
492.25	19.8779	1.1479	2217
492.80	33.4844	5.0221	2220
493.35	22.6121	1.2496	2223
493.90	19.0585	0.8045	2226
494.45	20.7604	1.3596	2229
495.00	20.4544	1.0028	2232
495.55	19.0893	0.6511	2234
496.10	20.8221	0.8129	2237
496.65	18.9456	0.7697	2240
497.20	19.7146	0.7108	2243
497.75	18.6680	0.8094	2246
498.30	19.7821	0.7664	2249
498.85	19.3515	1.1688	2252
499.40	20.5854	1.2799	2254
499.95	21.1185	1.0995	2257
500.50	20.0021	0.8985	2260
501.05	21.1952	1.1884	2263
501.60	19.7882	1.0047	2266
502.15	18.9530	1.3677	2269
502.70	20.1300	1.4753	2272
503.25	20.4956	1.3597	2275
503.80	19.2921	0.7310	2278
504.35	18.8619	0.8250	2281
504.90	18.6746	1.0053	2284
505.45	20.1374	0.7679	2287
506.00	19.8230	0.9341	2290
506.55	19.0061	0.7448	2293
507.10	19.3811	0.9591	2296
507.65	20.5493	0.6406	2299
508.20	18.9222	0.5210	2302
508.75	20.0286	0.8370	2305
509.30	19.0415	0.7517	2308
509.85	18.7178	1.0820	2311
510.40	19.1886	0.7523	2314
510.95	18.9996	0.9601	2317
511.50	19.3268	1.0440	2320
512.05	19.6830	1.1637	2323
512.60	19.0348	0.9616	2326
513.15	23.0411	1.8401	2329
513.70	18.8372	0.7905	2332
514.25	18.4922	0.8285	2335
514.80	18.2275	0.8962	2338
515.35	18.3496	0.8908	2341
515.90	19.0200	0.9302	2344
516.45	20.6485	0.6586	2347
517.00	19.1293	0.7928	2350
517.55	18.5896	0.8523	2352
518.10	18.5146	1.2592	2355
518.65	20.8659	1.3522	2358
519.20	18.1233	1.0599	2361
519.75	19.2354	1.2933	2364
520.30	18.7437	1.3863	2367
520.85	19.8550	1.3348	2370
521.40	19.1026	0.9342	2373
521.95	20.6818	1.4072	2376
522.50	20.1341	1.5397	2379
523.05	19.4475	1.8082	2381
523.60	16.6200	0.8273	2384
524.15	18.6747	0.8885	2387
524.70	20.0337	1.5776	2390
525.25	17.1818	1.0918	2393
525.80	18.4867	1.4501	2396
526.35	30.4978	4.4574	2399
526.90	18.9836	1.1990	2402
527.45	16.2793	1.2603	2405
528.00	18.9850	1.2882	2409
528.55	21.4348	1.5536	2411
529.10	20.6261	1.6440	2414
529.65	18.8741	1.4201	2418
530.20	18.6546	1.2058	2420
530.75	20.6885	1.4995	2423
531.30	20.4122	1.6250	2426
531.85	20.2736	1.2197	2430
532.40	20.7811	1.5743	2433
532.95	18.2989	1.1606	2435
533.50	19.7541	0.6374	2438
534.05	24.6864	1.1989	2442
534.60	19.6563	0.9610	2444
535.15	19.0629	0.6496	2447
535.70	20.0015	1.0626	2450
536.25	22.2625	1.4836	2453
536.80	19.9507	1.2072	2456
537.35	17.0911	0.8610	2459
537.90	20.7230	1.5253	2462
538.45	23.1911	2.2655	2465
539.00	20.9196	1.6624	2468
539.55	18.2279	1.1115	2471
540.10	17.6674	0.9126	2474
540.65	19.4248	0.9655	2477
541.20	17.4611	0.8953	2480
541.75	20.0719	1.4349	2483
542.30	18.4875	1.3661	2486
542.85	19.5365	1.5061	2489
543.40	19.6796	1.1354	2492
543.95	21.2137	1.2115	2495
544.50	19.7389	1.1811	2497
545.05	17.9485	0.8008	2500
546.70	18.7660	0.5743	2509
547.25	20.2971	1.2770	2512
547.80	18.1593	1.0702	2515
548.35	17.7259	1.0642	2518
548.90	19.0633	0.9928	2520
549.45	21.2619	1.3283	2523
550.00	20.6179	1.4590	2526
550.55	19.8229	1.1900	2529
551.10	20.2821	1.7359	2532
551.65	18.7056	0.8952	2535
552.20	18.1793	1.1795	2538
552.75	19.8265	1.2587	2541
553.30	27.2632	2.7848	2545
553.85	19.9796	1.5283	2548
554.40	18.9811	1.1953	2551
554.95	18.6933	1.2917	2553
555.50	18.2159	0.8411	2557
556.05	18.7854	1.0727	2560
556.60	19.3330	1.0490	2563
557.15	18.4821	0.9179	2566
557.70	19.6804	0.9847	2569
558.25	20.3882	0.5981	2572
558.80	19.7285	0.9479	2575
559.35	21.7118	1.1806	2578
559.90	18.9611	0.6332	2580
560.45	21.3763	1.1103	2583
561.00	20.3068	0.9197	2586
561.55	18.7159	1.0427	2589
562.10	19.0018	1.2564	2592
562.65	18.9982	0.7274	2596
563.20	21.4004	1.4734	2599
563.75	18.8041	1.4582	2601
564.30	18.3050	1.1649	2604
564.85	19.4062	1.1450	2607
565.40	19.4618	1.2956	2611
565.95	19.2030	1.1446	2614
566.50	20.0146	1.6013	2617
567.05	19.0356	1.4435	2620
567.60	18.9400	1.3205	2623
568.15	20.7207	1.4231	2626
568.70	19.0279	1.8697	2629
569.25	22.8078	1.7190	2632
569.80	19.9248	1.3621	2635
570.35	19.2996	1.3341	2638
570.90	19.4525	1.3218	2641
571.45	20.6448	1.4268	2644
572.00	20.2654	2.0153	2647
572.55	20.2475	1.5178	2650
573.10	20.4067	1.5962	2653
573.65	20.2600	1.6973	2657
574.20	20.3467	1.9901	2659
574.75	19.0144	1.5601	2662
575.30	20.1322	1.0415	2665
575.85	17.9746	0.8352	2668
576.40	19.5837	1.5551	2672
576.95	20.4861	1.4865	2675
577.50	19.9131	1.3529	2678
578.05	19.9348	1.3585	2680
578.60	19.7814	1.2561	2683
579.15	19.7145	1.2998	2687
579.70	19.1723	1.4605	2689
580.25	24.7800	2.6483	2693
580.80	20.6418	1.6776	2696
581.35	19.6889	1.6561	2699
581.90	19.0225	1.5866	2702
582.45	18.9882	0.7688	2705
583.00	18.4775	0.9155	2708
583.55	20.1163	1.1874	2711
584.10	17.3089	0.9459	2715
584.65	19.3162	1.0038	2718
585.20	20.3839	1.2121	2721
585.75	22.0237	2.9063	2724
586.30	24.5457	3.7419	2727
586.85	21.8241	2.5636	2730
587.40	18.8133	0.7953	2733
587.95	20.3100	1.0952	2736
588.50	21.6430	1.3730	2739
589.05	19.0393	0.9164	2742
589.60	17.4365	0.6161	2746
590.15	21.9075	1.2233	2749
590.70	20.3752	0.9537	2752
591.25	20.2661	0.9754	2755
591.80	18.4033	0.8601	2758
592.35	19.6345	1.1308	2761
592.90	20.3346	1.2752	2764
593.45	20.1000	0.9463	2767
594.00	19.1979	0.7648	2770
594.55	20.9063	1.1275	2773
595.10	20.4582	1.3421	2777
595.65	19.0786	1.0517	2780
596.20	20.0048	1.1550	2783
596.75	19.2829	0.8915	2786
597.30	21.0344	0.9987	2789
597.85	19.6679	1.2040	2792
598.40	20.6141	1.7551	2795
598.95	18.8682	1.4007	2798
599.50	23.0154	1.8445	2801
600.05	21.1168	1.3804	2804
600.60	19.7241	1.3472	2807
601.15	18.7889	1.3058	2810
601.70	19.5356	1.4666	2813
602.25	20.9300	1.0698	2816
602.80	22.8468	0.6731	2819
603.35	18.8389	0.8486	2822
603.90	19.4514	1.2232	2825
604.45	19.3115	1.1370	2828
605.00	19.5207	1.1424	2831
605.55	18.8515	1.0653	2835
606.10	19.2025	1.6960	2838
606.65	19.8631	1.3803	2841
607.20	19.5771	1.3033	2844
607.75	19.1285	1.2107	2847
608.30	18.3807	1.0113	2850
608.85	17.5393	1.4624	2854
609.40	18.6522	1.4457	2857
609.95	22.7971	2.6567	2860
610.50	18.5285	1.2833	2864
611.05	17.8311	0.9843	2867
611.60	19.9233	1.2071	2870
612.15	18.7333	0.8715	2872
612.70	18.3468	0.9060	2875
613.25	18.4093	0.9530	2879
613.80	18.9496	1.0379	2882
614.35	20.2964	1.3752	2885
614.90	19.6448	1.0124	2888
615.45	19.5443	1.1512	2891
616.00	19.7567	1.1901	2895
616.55	19.9400	0.6261	2898
617.10	18.5961	0.5058	2901
617.65	19.1393	0.9629	2904
618.20	18.9771	1.1007	2908
618.75	20.0845	1.0078	2911
619.30	20.8274	1.3112	2914
619.85	20.1589	1.4854	2917
620.40	20.4822	2.2857	2920
620.95	20.4100	1.3711	2923
621.50	20.0993	0.9322	2926
622.05	18.1014	0.8571	2929
622.60	20.9096	1.4245	2932
623.15	19.0046	1.2004	2935
623.70	19.0273	0.9038	2938
624.25	19.6896	1.0453	2941
624.80	18.9367	1.1563	2944
625.35	21.5529	1.4282	2947
625.90	21.4274	1.7371	2950
626.45	20.0721	1.4854	2953
627.00	19.5907	1.2919	2956
627.55	19.7793	1.3004	2960
628.10	20.1875	1.6695	2963
628.65	19.2711	1.5203	2966
629.20	19.6750	1.9818	2969
629.75	19.0048	1.8176	2972
630.30	19.6948	1.5252	2975
630.85	20.2029	1.5596	2978
631.40	20.7567	1.9346	2981
631.95	18.9393	1.2448	2984
632.50	20.2252	2.0422	2988
633.05	18.0511	1.4589	2991
633.60	18.4239	1.4908	2994
634.15	19.1752	1.8965	2997
634.70	17.6946	0.9958	3000
635.25	19.8464	0.7629	3004
635.80	19.9907	1.4965	3007
636.35	17.4350	1.1128	3010
636.90	16.2185	0.6054	3013
637.45	18.8500	0.9440	3017
638.00	19.2014	0.8951	3020
638.55	17.5148	1.0378	3023
639.10	19.5330	1.0468	3026
639.65	19.0993	1.1402	3030
640.20	20.7326	1.8589	3032
640.75	18.6629	1.1773	3036
641.30	28.0493	2.8318	3039
641.85	20.8615	1.9751	3042
642.40	20.3471	1.7780	3045
642.95	19.6819	1.7396	3048
643.50	19.1204	1.4229	3052
644.05	20.5467	1.3856	3055
644.60	20.1704	1.8642	3058
645.15	20.2521	1.8696	3062
645.70	19.3289	1.2570	3064
646.25	19.5504	1.3826	3067
646.80	21.1841	1.6061	3071
647.35	19.2022	1.1449	3074
647.90	19.0093	1.1722	3077
648.45	19.2937	1.1827	3080
649.00	20.3626	1.4233	3083
649.55	19.0682	1.0852	3086
650.10	20.6786	1.7363	3090
650.65	17.9004	1.0215	3093
651.20	16.7885	1.4207	3096
651.75	19.6245	1.5281	3100
652.30	18.1464	1.3973	3103
652.85	18.0663	1.2786	3106
653.40	20.3911	1.8581	3109
653.95	18.4727	0.7226	3112
654.50	18.1893	0.7827	3116
655.05	21.0004	1.0800	3119
655.60	18.2950	1.0159	3122
656.15	17.7119	0.9961	3126
656.70	19.6304	0.7988	3129
657.25	17.4448	0.7336	3132
657.80	18.8689	0.7716	3135
658.35	19.2648	0.6215	3139
658.90	23.7825	1.9637	3142
659.45	19.5452	1.2915	3145
660.00	19.3218	1.3745	3149
660.55	19.0719	1.0809	3152
661.10	22.9654	2.0011	3155
661.65	18.7007	1.1769	3158
662.20	20.0525	1.0968	3161
662.75	19.3215	1.1242	3164
663.30	19.6279	1.2992	3167
663.85	22.4815	1.8661	3170
664.40	19.7243	1.5641	3173
664.95	21.1004	1.6767	3176
665.50	20.8067	1.4985	3180
666.05	19.1557	1.0092	3183
666.60	20.7041	1.3401	3186
667.15	19.5246	1.0245	3190
667.70	20.2548	1.2102	3193
668.25	17.7735	1.0996	3196
668.80	18.3889	1.4690	3199
669.35	18.9514	1.6344	3203
669.90	19.3996	1.2172	3206
670.45	18.3318	1.1474	3209
671.00	20.1285	1.4846	3213
671.55	20.4357	1.4113	3216
672.10	21.2893	1.3052	3219
672.65	20.9854	1.5245	3222
673.20	25.4075	1.7759	3226
673.75	21.9985	1.3069	3229
674.30	20.4904	1.3467	3232
674.85	19.8763	1.0977	3235
675.40	19.0533	1.1788	3238
675.95	19.3646	1.1147	3241
676.50	18.2256	1.3625	3244
677.05	19.1786	1.2634	3248
677.60	18.1235	1.0316	3251
678.15	19.8048	1.1004	3254
678.70	19.2193	0.7750	3257
679.25	19.4941	0.7399	3260
679.80	19.2185	0.8709	3263
680.35	21.5337	1.9199	3266
680.90	20.5757	1.2518	3269
681.45	19.1389	1.0216	3273
682.00	18.6683	0.9737	3276
682.55	21.8584	1.6500	3279
683.10	20.6764	1.1893	3282
683.65	19.4993	1.0118	3285
684.20	19.0382	1.3063	3288
684.75	18.7085	1.0454	3291
685.30	20.4307	1.2448	3295
685.85	19.1937	1.1918	3298
686.40	19.4207	1.2661	3301
686.95	19.1093	1.0765	3304
687.50	18.4670	1.0274	3307
688.05	19.5521	1.2981	3310
688.60	18.1096	1.0599	3313
689.15	18.3311	1.2401	3316
689.70	20.9889	1.7521	3319
690.25	20.7254	1.3646	3322
690.80	19.4859	1.0741	3326
691.35	20.3754	1.1336	3329
691.90	20.2411	1.1799	3332
692.45	19.1844	0.6264	3336
693.00	20.7707	0.7520	3339
693.55	19.4774	1.1639	3342
694.10	17.7714	0.7470	3345
694.65	18.9959	0.6033	3348
695.20	17.7004	0.3722	3352
695.75	19.9661	0.5126	3355
696.30	19.0341	1.1190	3358
696.85	18.7596	0.5930	3361
697.40	19.2925	0.8891	3364
697.95	20.0844	1.0900	3367
698.50	20.5189	0.9785	3371
699.05	20.5800	0.6670	3374
699.60	20.2641	1.1178	3377
700.15	18.2678	0.9436	3381
700.70	19.4604	1.4210	3384
701.25	21.9930	2.3289	3387
701.80	30.9995	2.7305	3391
702.35	30.9473	0.8231	3394
702.90	19.5636	0.3822	3397
703.45	20.1923	0.6174	3400
704.00	17.4467	1.1672	3404
704.55	24.1227	0.9416	3407
705.10	21.8116	0.7776	3410
705.65	22.5470	1.8655	3413
706.20	23.7693	1.9670	3417
706.75	20.8946	1.3028	3420
707.30	24.5393	1.8396	3423
707.85	20.4528	1.3476	3426
708.40	23.6275	1.8102	3430
708.95	23.6247	1.7397	3433
709.50	23.8951	1.1771	3437
710.05	21.8837	1.1608	3440
710.60	18.8661	1.1825	3443
711.15	18.1374	0.7864	3447
711.70	19.3123	1.7164	3450
712.25	19.1370	1.5219	3453
712.80	19.7820	1.5361	3457
713.35	19.1353	1.6649	3460
713.90	19.5216	1.1338	3464
714.45	20.1549	1.0918	3467
715.00	19.9196	1.0295	3470
715.55	21.9192	0.9934	3474
724.90	23.0907	1.6043	3529
725.45	26.3827	1.7931	3532
726.00	19.8454	1.1034	3536
726.55	19.9473	1.0045	3539
727.10	17.6127	1.2371	3542
727.65	17.3926	1.3843	3545
728.20	16.1954	1.2424	3549
728.75	15.1462	0.9163	3552
729.30	18.9587	1.2169	3555
729.85	16.3971	0.9881	3559
730.40	14.6031	0.7801	3562
730.95	16.9340	0.6958	3565
731.50	15.6961	1.4208	3568
732.05	15.0889	1.1515	3572
732.60	16.8791	1.2105	3576
733.15	18.7560	2.6644	3579
733.70	14.4456	1.7598	3582
734.25	16.1409	2.0298	3586
734.80	13.5634	1.2518	3589
735.35	14.9013	1.0815	3593
735.90	25.1583	2.8581	3596
736.45	28.2146	2.9998	3599
737.00	14.7446	0.8732	3603
737.55	18.1451	1.1740	3607
738.10	16.5614	0.7013	3610
738.65	15.6279	1.2662	3613
739.20	17.2552	1.5053	3616
739.75	17.2271	1.3852	3620
740.30	26.2083	1.9247	3623
740.85	14.4658	1.2902	3627
741.40	16.6397	1.7733	3630
741.95	14.8097	1.3909	3633
742.50	14.2926	1.3017	3637
743.05	15.0222	2.1117	3640
744.15	17.9224	1.5353	3647
744.70	14.7722	1.0933	3650
745.25	15.4709	1.3842	3654
745.80	14.9902	1.2898	3657
746.35	16.4840	1.0997	3660
746.90	13.2457	1.0630	3664
747.45	14.8231	1.1342	3667
748.00	15.7193	1.5937	3670
748.55	15.6740	1.1202	3674
749.10	19.0268	1.2852	3677
749.65	18.4310	1.0353	3680
750.20	18.2846	1.4993	3683
750.75	16.4493	1.4426	3687
751.30	17.7571	1.6189	3690
751.85	17.3129	1.4641	3693
752.40	13.9582	0.7845	3696
752.95	16.4641	0.9802	3700
753.50	17.8162	1.9067	3703
754.05	15.7647	1.4764	3706
754.60	17.4840	2.4364	3709
755.15	16.4002	1.8790	3713
755.70	16.0799	1.5073	3716
756.25	18.6287	1.5775	3719
756.80	16.9926	1.3268	3723
757.35	16.0695	1.6241	3726
757.90	16.0950	1.4624	3730
758.45	16.6957	1.4756	3733
759.00	16.6411	1.9406	3737
759.55	18.0338	1.5645	3740
760.10	17.1707	1.5090	3744
760.65	17.7266	1.7704	3747
761.20	18.2675	2.0220	3750
761.75	18.3699	2.9038	3754
762.30	19.7680	2.3195	3757
762.85	17.4320	1.5010	3761
763.40	16.2468	1.5372	3764
763.95	15.8454	1.5762	3767
764.50	16.4289	1.7948	3771
765.05	14.8914	1.8882	3774
765.60	12.3694	1.3595	3778
766.15	15.9965	1.8243	3781
766.70	15.7287	1.4632	3784
767.25	15.9878	1.4629	3788
767.80	14.9765	1.5032	3791
768.35	16.9669	1.8680	3795
768.90	16.5293	1.0680	3798
769.45	18.9208	1.1653	3802
770.00	14.2603	1.1977	3805
770.55	14.0098	1.1808	3809
771.10	16.3746	1.3506	3812
771.65	16.0010	1.3561	3815
772.20	18.4823	1.6102	3819
772.75	16.4448	1.4026	3822
773.30	17.4949	1.4985	3825
773.85	14.8142	0.7556	3829
774.40	19.8795	1.6285	3832
774.95	20.5450	1.6466	3836
775.50	18.6821	1.5445	3839
776.05	20.2208	1.5928	3843
776.60	21.9466	1.9942	3846
777.15	21.2725	1.3373	3849
777.70	20.4087	1.0804	3853
778.25	22.7399	1.4043	3856
778.80	23.5514	1.5670	3859
779.35	23.5292	1.6652	3863
780.45	14.3697	1.2672	3871
781.00	17.2814	1.8384	3874
781.55	17.8019	1.5432	3878
782.10	16.7569	1.4311	3881
782.65	18.3469	1.4462	3885
783.20	16.4063	1.1354	3888
783.75	18.0485	1.6427	3891
784.30	24.1831	2.2802	3895
784.85	16.6182	1.1193	3899
785.40	16.4287	1.6560	3902
785.95	17.7879	1.6327	3905
786.50	16.5087	1.4781	3909
787.05	17.9313	1.2974	3912
787.60	21.5916	1.6753	3915
788.15	28.3061	2.7529	3919
788.70	17.8254	1.2406	3923
789.25	18.1483	1.3558	3926
789.80	17.4921	1.6575	3929
790.35	15.9666	1.4733	3933
790.90	15.7276	1.3718	3936
791.45	15.7379	1.1430	3939
792.00	18.1908	1.2837	3943
792.55	16.4447	1.1507	3946
793.10	18.9239	1.2204	3950
793.65	17.1736	1.2807	3953
794.20	18.5802	1.4476	3957
794.75	17.2178	1.0068	3961
795.30	18.5956	1.2780	3964
795.85	17.5378	1.3780	3967
796.40	20.1880	1.4971	3971
796.95	20.2672	1.0640	3974
797.50	18.9690	1.2720	3977
798.05	17.7680	1.0477	3981
798.60	18.5515	0.8630	3985
799.15	20.9493	0.7811	3988
799.70	20.7416	1.2829	3992
800.25	22.9012	1.5078	3995
800.80	21.5744	1.1624	3998
801.35	19.5781	0.9042	4002
801.90	18.4239	0.9911	4005
802.45	46.2535	3.7610	4009
803.00	19.2249	1.2640	4012
803.55	21.6186	1.4740	4016
804.10	20.3832	1.5104	4019
804.65	19.2688	1.1085	4023
805.20	19.7617	1.2543	4026
805.75	19.5547	1.1599	4030
806.30	20.6999	1.3322	4033
806.85	20.7527	1.2386	4037
807.40	19.4376	1.2073	4040
807.95	18.5753	1.1753	4043
808.50	16.4575	1.1571	4047
809.05	18.1970	0.9310	4050
809.60	17.8375	0.5491	4053
810.15	17.4429	0.7829	4057
810.70	19.0216	0.8430	4060
811.25	19.5086	1.4626	4064
811.80	19.7183	1.3252	4068
812.35	16.1781	1.2277	4071
812.90	18.7947	1.6986	4075
813.45	17.6525	1.5091	4078
814.00	19.8535	1.6809	4082
814.55	17.3441	1.1750	4085
815.10	18.1123	1.4714	4088
815.65	20.3944	1.8995	4092
816.20	21.6880	1.5731	4095
816.75	19.9467	1.0219	4099
817.30	19.3357	1.3770	4102
817.85	21.0497	1.5419	4106
818.40	21.4963	1.1827	4109
818.95	25.0692	1.3599	4112
819.50	20.8284	1.2589	4116
820.05	20.5242	1.0132	4120
820.60	22.0462	1.2940	4123
821.15	21.0802	1.1399	4127
821.70	21.0814	1.5177	4130
822.25	22.6159	1.8351	4134
822.80	21.0060	1.3692	4138
823.35	21.6402	1.4669	4141
823.90	22.0868	1.4713	4145
824.45	18.8778	1.2245	4148
825.00	22.2051	1.4781	4152
825.55	22.0486	1.3785	4155
826.10	24.0485	1.7648	4159
826.65	20.3336	1.4477	4163
827.20	16.3507	0.9737	4166
827.75	21.7249	1.3500	4170
828.30	23.6287	1.6091	4173
828.85	22.8701	1.4005	4177
829.40	23.5676	1.3586	4181
829.95	19.8672	1.0139	4184
830.50	21.1084	1.2675	4188
831.05	21.4635	1.3257	4192
831.60	20.2967	1.1986	4195
832.15	23.8328	1.6098	4198
832.70	23.2771	1.6054	4202
833.25	22.0758	1.4444	4205
833.80	19.9724	1.4696	4209
834.35	21.3700	1.2306	4212
834.90	25.0985	1.6551	4216
835.45	22.5806	1.1863	4219
836.00	24.6229	1.4466	4223
836.55	22.6329	1.4480	4227
837.10	20.7283	1.2250	4230
837.65	22.4462	1.4336	4234
838.20	19.4513	1.2058	4237
838.75	19.2094	1.5657	4241
839.30	19.0616	1.5803	4245
839.85	16.9305	1.2373	4248
840.40	18.6081	1.5991	4252
840.95	19.7180	1.6525	4255
841.50	17.3934	1.4377	4259
842.05	15.5946	1.2896	4262
842.60	15.9842	1.1533	4266
843.15	14.8556	1.2735	4270
843.70	15.0334	1.4739	4273
844.25	15.9924	1.1479	4277
844.80	17.4153	0.9213	4280
845.35	18.2971	1.4223	4284
845.90	16.5915	1.2043	4288
846.45	18.8043	1.4298	4292
847.00	18.0486	1.4129	4295
847.55	18.3043	1.6674	4299
848.10	17.3086	1.3874	4302
848.65	18.8012	1.5008	4306
849.20	17.5738	1.3355	4309
849.75	21.5068	1.7432	4313
850.30	16.7652	0.8728	4316
850.85	18.3628	1.3884	4320
851.40	17.0445	1.4105	4324
851.95	16.8248	1.3164	4327
852.50	15.8409	1.3217	4331
853.05	15.5076	1.3573	4334
853.60	15.8629	0.7086	4338
854.15	17.8174	0.9912	4342
854.70	16.7334	0.9864	4345
855.25	16.5031	1.1754	4349
855.80	15.6709	1.1767	4353
856.35	14.5953	1.3198	4356
856.90	14.8676	1.4030	4360
857.45	18.2278	1.6597	4364
858.00	20.1790	1.6388	4368
858.55	20.8754	1.0486	4371
859.10	18.3637	0.7063	4375
859.65	18.6549	0.8923	4378
860.20	16.9321	0.4288	4382
860.75	18.2202	0.6548	4385
861.30	15.7502	0.6368	4389
861.85	17.5044	0.7408	4392
862.40	15.8414	0.9747	4396
862.95	18.9614	0.8957	4399
863.50	17.8337	0.6125	4403
864.05	17.3703	1.5176	4407
864.60	15.5502	1.6158	4411
865.15	18.8352	1.5681	4414
865.70	24.2895	1.8341	4418
866.25	20.9845	1.5325	4421
866.80	18.9462	1.6579	4425
867.35	18.2077	1.4302	4428
867.90	20.9801	1.9295	4432
868.45	16.5930	1.2611	4435
869.00	17.3349	1.0396	4439
869.55	18.0892	2.0025	4443
870.10	18.9995	1.9041	4447
870.65	15.9646	1.5656	4450
871.20	14.6796	1.4367	4454
871.75	14.8313	1.2512	4458
872.30	13.9247	1.4047	4462
872.85	14.4342	1.2027	4465
873.40	15.9693	1.9273	4469
873.95	15.1366	1.5602	4472
874.50	15.5428	1.6824	4476
875.05	17.5706	1.5925	4480
875.60	17.0302	1.8234	4484
876.15	16.7888	1.9433	4487
876.70	16.5062	1.3082	4491
877.25	19.7432	1.5138	4495
877.80	17.8960	1.5214	4498
878.35	18.2249	1.3774	4502
878.90	18.4864	1.3637	4506
879.45	17.9399	1.7000	4509
880.00	11.8153	1.5721	4513
880.55	15.5707	1.3607	4517
881.10	16.7532	2.0000	4520
881.65	16.1059	1.3588	4524
882.20	19.7742	1.2087	4528
882.75	19.2850	1.4376	4532
883.30	17.5642	1.2117	4535
883.85	18.3325	1.4280	4539
884.40	18.3909	1.2498	4542
884.95	18.0929	1.4020	4546
885.50	17.6675	1.5862	4550
886.05	17.3818	1.0856	4554
886.60	18.3781	1.2656	4557
887.15	18.0864	1.5532	4561
887.70	18.0303	1.3002	4564
888.25	17.7710	1.3708	4568
888.80	21.1465	1.9870	4572
889.35	18.9986	1.8612	4576
889.90	17.4484	1.5733	4579
890.45	18.4267	1.6304	4583
891.00	18.9550	1.4237	4587
891.55	18.0062	1.5623	4591
892.10	18.2596	1.6158	4595
892.65	15.2231	1.1759	4599
893.20	17.1726	1.9884	4602
893.75	19.2432	2.0843	4606
894.30	16.4647	1.8576	4610
894.85	15.9512	1.7590	4613
895.40	17.3941	1.5332	4617
895.95	17.9414	1.4301	4621
896.50	18.7363	1.6123	4625
897.05	19.3970	1.1101	4629
897.60	17.7669	1.4585	4633
898.15	18.0664	1.4754	4636
898.70	16.3748	1.3288	4640
899.25	20.1645	2.4343	4644
899.80	22.2565	2.6768	4647
900.35	16.7865	1.6996	4651
900.90	14.5162	1.4348	4654
901.45	14.3974	1.2888	4658
902.00	15.0417	1.4818	4662
902.55	14.6278	0.8807	4665
903.10	16.5490	1.0906	4669
903.65	17.9001	1.3527	4673
904.20	17.9209	1.6875	4677
904.75	18.8008	1.2901	4681
905.30	18.1299	1.3638	4685
905.85	14.9463	1.3040	4689
906.40	16.4388	1.4469	4692
906.95	16.4004	1.3134	4696
907.50	18.5011	1.3163	4700
908.05	18.0958	1.8977	4704
908.60	17.7811	1.7781	4708
909.15	17.6811	1.2307	4712
909.70	19.1164	1.6315	4716
910.25	16.1413	1.6155	4719
910.80	16.3690	1.7186	4723
911.35	17.6140	1.7563	4727
911.90	19.3304	1.8049	4731
912.45	20.3133	1.6379	4735
913.00	18.5750	1.4014	4739
913.55	18.6643	1.1288	4743
914.10	18.2292	1.2683	4747
914.65	17.8693	0.8932	4750
915.20	16.9025	1.1969	4754
915.75	16.1142	1.2736	4758
916.30	18.6124	1.6737	4761
916.85	16.4349	1.1561	4765
917.40	14.4398	1.2186	4769
917.95	16.6422	1.5787	4773
918.50	16.3729	1.0622	4776
919.05	19.4867	1.3752	4780
919.60	19.0387	1.4741	4784
920.15	18.7681	1.6623	4788
920.70	21.7390	2.1542	4792
921.25	18.3820	1.6531	4796
921.80	18.1996	1.5705	4800
922.35	17.9280	1.3862	4804
922.90	20.0160	1.5786	4807
923.45	17.7962	1.4231	4811
924.00	19.8184	1.6827	4815
924.55	19.1314	1.4333	4819
925.10	18.0162	1.2985	4822
925.65	17.6956	1.5624	4826
926.20	19.4871	1.9486	4830
926.75	19.6558	1.9050	4834
927.30	17.0142	0.9352	4837
927.85	17.4118	1.2861	4841
928.40	17.7895	1.8127	4845
928.95	16.6186	1.3228	4849
929.50	16.6240	1.3203	4852
930.05	18.3311	1.4696	4856
930.60	17.1118	1.3784	4860
931.15	21.9456	2.2812	4864
931.70	29.1994	2.6955	4868
932.25	21.1009	1.4734	4871
932.80	23.4942	1.6026	4875
933.35	24.0666	1.9838	4879
933.90	23.8685	1.5715	4883
934.45	23.6083	1.6034	4887
935.00	23.4929	1.6404	4891
935.55	20.5246	1.7643	4895
936.10	19.5013	1.1385	4898
936.65	21.6203	1.5853	4902
937.20	21.0045	1.7373	4906
937.75	22.4358	2.0812	4910
938.30	20.4416	1.4516	4913
938.85	19.2360	1.2398	4917
939.40	22.3814	1.7942	4921
939.95	21.0722	1.2785	4925
940.50	22.5841	1.1500	4929
941.05	23.0764	1.5295	4933
941.60	22.0531	1.5687	4936
942.15	19.9943	1.4483	4940
942.70	19.3140	1.6911	4944
943.25	20.9675	1.4913	4947
943.80	19.7828	1.7047	4951
944.35	21.4577	2.4256	4955
944.90	19.2951	1.7530	4959
945.45	22.6590	1.9704	4963
946.00	22.7937	1.9958	4967
946.55	23.3828	2.2294	4970
947.10	20.4826	1.9072	4975
947.65	22.8183	2.3769	4978
948.20	22.7525	2.0703	4982
948.75	21.4636	2.3576	4986
950.40	21.9095	1.1565	4997
950.95	21.9535	1.3879	5001
951.50	22.1323	1.5743	5005
952.05	23.7756	1.5227	5009
952.60	22.5810	1.2372	5012
953.15	22.2117	1.6057	5016
953.70	23.3974	2.2702	5020
954.25	23.1137	2.3318	5023
954.80	22.5766	1.8536	5027
955.35	21.8653	1.7968	5032
955.90	21.0260	1.7709	5035
956.45	24.6913	2.2785	5039
957.00	22.9808	2.0139	5043
957.55	22.4309	2.1066	5047
958.10	23.4728	2.4639	5051
958.65	29.7240	2.7618	5054
959.20	25.9539	2.6238	5058
959.75	23.1271	2.1418	5062
960.30	25.6710	2.5407	5066
960.85	26.3314	2.8690	5070
961.40	26.8756	3.0710	5074
961.95	25.8796	2.8820	5078
962.50	27.4682	3.2753	5082
963.05	35.7212	3.3665	5085
963.60	29.1135	2.7117	5089
964.15	27.4526	2.3579	5093
964.70	25.3858	2.3926	5097
965.25	25.3066	2.2103	5101
965.80	33.0539	3.3555	5105
966.35	22.4614	1.8823	5110
966.90	22.3822	1.8608	5113
967.45	22.3326	1.6757	5117
968.00	22.2394	1.8502	5121
968.55	19.4639	2.0079	5125
969.10	23.5523	2.5615	5129
969.65	25.7721	2.0771	5132
970.20	21.1328	1.4678	5136
970.75	21.3305	2.1957	5140
971.30	23.6548	2.6113	5144
971.85	24.6570	3.0138	5148
972.40	22.4445	2.3264	5152
972.95	22.7978	2.6147	5156
973.50	22.2414	2.2819	5160
974.05	21.8071	2.1740	5164
974.60	18.9935	1.4666	5167
975.15	21.0123	1.6082	5171
975.70	22.0102	1.9261	5175
976.25	21.6025	1.8195	5180
976.80	21.9348	1.9633	5184
977.35	22.2126	2.1292	5188
977.90	22.5686	2.2181	5192
978.45	21.1608	1.5567	5195
979.00	22.3425	1.6967	5200
979.55	20.3642	1.5086	5203
980.10	20.0864	1.2640	5207
980.65	21.9961	1.8324	5211
981.20	22.9345	2.2034	5215
981.75	22.6617	2.2072	5219
982.30	23.3729	2.1124	5223
982.85	22.3608	1.7145	5227
983.40	22.1034	1.8388	5231
983.95	22.4090	1.8535	5235
984.50	21.4046	2.1683	5239
985.05	22.9636	2.0377	5243
985.60	22.7807	1.8727	5247
986.15	21.8603	2.0023	5252
986.70	20.3769	1.2534	5256
987.25	22.3582	1.9565	5260
987.80	22.8879	1.9195	5264
988.35	25.6195	2.3846	5268
988.90	21.1997	1.5325	5272
989.45	20.8346	1.7054	5276
990.00	21.9333	1.8183	5280
990.55	22.7761	2.1280	5284
991.10	22.9870	2.0129	5288
991.65	21.1496	1.4459	5292
992.20	23.2027	1.6061	5296
992.75	24.2127	1.6270	5300
993.30	23.4773	1.9652	5304
993.85	22.1285	1.8156	5308
994.40	21.6003	1.5563	5312
994.95	20.6055	0.9593	5316
995.50	19.9989	1.6001	5320
996.05	20.9410	1.7523	5324
996.60	21.6129	1.7872	5328
997.15	21.7920	2.2039	5332
997.70	20.7272	2.0394	5336
998.25	21.4631	2.0095	5340
998.80	21.7360	1.6789	5344
999.35	21.3324	1.3815	5348
999.90	20.2092	1.8061	5352
1000.45	21.7129	2.0188	5357
1001.00	19.7874	1.9090	5361
1001.55	22.7754	1.9822	5365
1002.10	19.4750	1.4044	5368
1002.65	18.1349	1.3323	5372
1003.20	19.4087	1.6931	5376
1003.75	20.7453	1.7636	5380
1004.30	19.2500	1.8001	5384
1004.85	18.2550	1.9026	5388
1005.40	20.1392	1.6913	5392
1005.95	21.7153	1.9521	5396
1006.50	22.2012	1.6658	5401
1007.05	22.7064	1.7709	5405
1007.60	28.3213	3.1694	5408
1008.15	21.7674	1.8741	5413
1008.70	21.4074	1.6651	5417
1009.25	21.4485	1.8054	5421
1010.35	22.7114	2.3092	5429
1010.90	21.3453	1.5840	5433
1011.45	22.4666	2.0629	5437
1012.55	22.8123	1.6850	5445
1013.10	20.9993	1.9622	5449
1013.65	23.4402	1.5474	5453
1014.20	20.9948	1.7628	5457
1014.75	21.5185	1.8005	5461
1015.30	22.0362	1.6813	5465
1015.85	20.8999	1.2863	5469
1016.40	23.0187	1.6488	5473
1016.95	20.1917	1.4646	5477
1017.50	20.4628	1.5138	5481
1018.05	20.3751	1.5540	5485
1018.60	23.2202	2.3031	5489
1019.15	19.8310	1.6281	5493
1019.70	19.1597	1.4853	5497
1020.25	19.4069	1.7139	5502
1020.80	20.2604	1.7596	5506
1021.35	20.0837	2.0067	5510
1021.90	22.3395	1.7234	5514
1022.45	21.5363	1.3215	5518
1023.00	20.6079	1.3793	5522
1023.55	20.5386	2.0303	5526
1024.10	21.9240	1.6973	5530
1024.65	22.2226	1.7200	5534
1025.20	21.6181	1.4300	5538
1025.75	24.2297	2.3509	5542
1026.30	22.0376	1.8039	5546
1026.85	19.4097	1.4681	5550
1027.40	19.9196	1.4951	5554
1027.95	20.0696	1.4499	5558
1028.50	22.7057	1.9525	5562
1029.05	21.7825	2.0903	5566
1029.60	23.6604	1.9324	5571
1030.15	22.4443	1.8691	5574
1030.70	23.5470	2.1403	5578
1031.25	22.6113	2.4180	5582
1031.80	21.4916	1.9663	5586
1032.35	21.6262	1.8790	5590
1032.90	23.2204	2.2918	5594
1033.45	21.3555	1.7466	5599
1034.00	22.0238	2.0700	5603
1034.55	21.4220	2.2296	5607
1035.10	23.6643	1.9986	5611
1035.65	21.5680	1.4459	5615
1036.20	19.9405	1.3508	5619
1036.75	22.5928	1.7726	5623
1037.30	20.9676	1.5170	5627
1037.85	20.9979	1.6323	5631
1038.40	22.6778	2.0794	5636
1038.95	21.3131	2.0670	5640
1039.50	22.9182	2.2355	5643
1040.05	20.1446	2.0533	5647
1040.60	20.6330	1.9358	5651
1041.15	22.4941	2.2042	5655
1041.70	23.2846	2.4389	5660
1042.25	20.8698	1.5617	5664
1042.80	22.6203	1.7345	5668
1043.35	22.6317	1.5659	5672
1043.90	23.7570	1.8904	5676
1044.45	21.9051	1.7820	5680
1045.00	20.1921	1.7928	5685
1045.55	19.7377	1.6768	5689
1046.10	24.6310	1.8330	5693
1046.65	20.0778	1.6770	5696
1047.20	20.0350	1.7873	5701
1047.75	21.4271	1.8607	5705
1048.30	22.5270	1.8618	5709
1048.85	21.0188	1.4387	5713
1049.40	21.0910	1.4533	5717
1049.95	22.8547	1.8879	5722
1050.50	21.0934	1.9688	5726
1051.05	22.9705	2.2152	5730
1051.60	22.6428	1.8499	5734
1052.15	20.4219	1.7090	5738
1052.70	19.1998	1.4719	5742
1053.25	19.4413	1.3320	5746
1053.80	20.9544	1.7614	5750
1054.35	25.3106	2.3853	5754
1054.90	25.3057	2.4050	5758
1055.45	26.4147	2.3373	5762
1056.00	24.1505	1.9031	5766
1056.55	21.3753	1.3677	5770
1057.10	21.3970	1.3347	5775
1057.65	27.7391	2.6245	5779
1058.20	22.3164	1.8879	5783
1058.75	22.9374	1.9474	5788
1059.30	22.1797	2.0196	5792
1059.85	22.9182	1.6832	5796
1060.40	23.9650	2.0022	5801
1060.95	21.7413	1.7671	5805
1061.50	19.4902	1.6824	5809
1062.05	18.6156	1.6354	5814
1062.60	22.2030	2.0796	5818
1063.15	21.9809	1.9018	5822
1063.70	21.7370	1.6913	5825
1064.25	22.7120	1.9174	5830
1064.80	21.7896	2.0535	5834
1065.35	21.1568	2.1873	5838
1065.90	20.7788	2.1073	5842
1066.45	22.8847	1.6956	5846
1068.10	22.7295	2.2737	5858
1068.65	20.6501	1.9659	5863
1069.20	21.9902	2.0464	5867
1069.75	22.0910	1.9094	5871
1070.30	19.9649	1.5902	5875
1070.85	21.1738	1.9497	5879
1071.95	16.0324	1.0685	5888
1072.50	17.3773	1.4369	5892
1073.05	18.7749	1.1059	5896
1073.60	18.6768	1.6555	5900
1074.15	31.1896	4.1724	5904
1074.70	21.5851	1.9950	5909
1075.25	22.3280	2.0493	5913
1075.80	21.4409	1.5727	5917
1076.90	22.0578	1.5918	5925
1077.45	21.5959	1.5552	5929
1078.00	21.9717	2.3945	5935
1078.55	21.9943	1.6771	5939
1079.10	21.1131	1.4501	5943
1079.65	23.1803	1.6398	5947
1080.20	21.4400	1.2705	5952
1080.75	23.5459	1.8941	5956
1081.30	20.7931	1.6437	5960
1081.85	21.7694	1.9419	5965
1082.40	22.2865	2.3586	5969
1082.95	20.0017	2.1032	5974
1083.50	21.4363	1.5509	5978
1084.05	20.1194	1.3021	5983
1084.60	18.6219	1.3665	5987
1085.15	21.5892	1.2500	5991
1085.70	22.5348	1.1025	5995
1086.25	21.1439	1.6317	6000
1086.80	20.6698	1.5398	6004
1087.35	21.1869	1.5973	6008
1087.90	22.7896	1.8465	6012
1088.45	22.2964	1.5604	6016
1089.00	20.3398	1.4342	6021
1089.55	23.1523	2.1357	6025
1090.10	24.0100	2.3200	6030
1090.65	22.3674	2.0037	6034
1091.20	19.7560	1.6871	6038
1091.75	20.5834	1.5003	6042
1092.30	18.1011	1.0972	6047
1092.85	19.9630	1.9618	6051
1093.40	18.8194	2.0108	6056
1093.95	21.5051	1.8396	6060
1094.50	20.3550	1.5185	6064
1095.05	19.8605	1.4206	6068
1095.60	18.5282	1.5233	6072
1096.15	20.2870	1.4395	6077
1096.70	21.0550	1.4508	6081
1097.25	22.3029	1.5834	6086
1097.80	22.0516	1.8135	6090
1098.35	19.8005	1.6372	6094
1098.90	20.6994	1.5930	6098
1099.45	20.0789	1.5293	6103
1100.00	20.0568	2.0269	6107
1100.55	22.9627	2.3806	6111
1101.10	21.4273	1.9077	6115
1101.65	21.0526	1.4052	6120
1102.20	21.0061	1.8071	6124
1102.75	20.7681	1.5314	6128
1103.30	19.7336	1.6610	6132
1103.85	24.6266	1.9098	6137
1104.40	21.6417	1.6227	6141
1104.95	21.7954	1.8179	6145
1105.50	20.6829	1.5225	6150
1106.05	20.0735	1.5344	6155
1106.60	18.6420	1.4082	6159
1107.15	20.3779	1.5743	6164
1107.70	20.3658	1.2940	6168
1108.25	21.9897	1.4808	6172
1108.80	23.1349	1.8212	6177
1109.35	22.8891	1.8952	6181
1109.90	20.7523	1.5844	6186
1110.45	21.9622	1.9082	6190
1111.00	22.0780	2.2025	6194
1111.55	22.6333	1.8735	6198
1112.10	23.9727	2.4315	6202
1112.65	20.6806	1.7820	6206
1113.20	20.9277	1.6654	6211
1113.75	19.8838	1.0707	6215
1114.30	21.1100	1.2190	6219
1114.85	20.6621	1.1377	6224
1115.40	21.2799	1.6763	6228
1115.95	19.2740	1.3978	6233
1116.50	20.1302	1.4969	6237
1117.05	21.2752	1.7542	6242
1117.60	22.2554	1.5589	6246
1118.15	21.8628	1.5548	6251
1118.70	23.0126	2.1367	6255
1119.25	24.8379	2.6324	6259
1119.80	18.9311	1.6135	6263
1120.35	18.9295	1.1141	6268
1120.90	25.2943	2.0422	6272
1121.45	22.0835	1.5663	6277
1122.00	21.0713	1.5729	6281
1122.55	22.2566	1.8088	6285
1123.10	20.1792	1.7060	6290
1123.65	19.1509	1.5632	6294
1124.20	21.0039	0.9801	6299
1124.75	26.9440	1.6558	6303
1125.30	22.8887	1.1939	6308
1125.85	22.4211	1.3846	6312
1126.40	31.6953	2.4938	6316
1126.95	21.8367	1.0723	6321
1127.50	20.3922	1.2699	6325
1128.05	20.4994	1.3669	6329
1128.60	23.1722	1.5373	6334
1129.15	21.2786	1.2225	6338
1129.70	23.4326	1.3257	6343
1130.25	23.5151	1.4222	6347
1130.80	20.6333	1.2738	6352
1131.35	21.1523	1.3120	6356
1131.90	26.2107	1.6706	6361
1132.45	22.4340	1.2374	6365
1133.00	20.3551	0.9029	6369
1133.55	22.4181	1.1724	6374
1134.10	22.2246	1.2315	6378
1134.65	23.0964	1.4365	6383
1135.20	21.6434	1.3656	6387
1135.75	20.1946	0.7143	6392
1136.30	19.6696	0.7936	6396
1136.85	20.2061	1.3305	6401
1137.40	20.4691	1.6850	6405
1137.95	21.9832	1.7470	6410
1138.50	21.8332	1.6510	6414
1139.05	22.0123	1.9639	6419
1139.60	23.2099	2.0261	6423
1140.15	20.8515	1.6526	6428
1140.70	21.5123	1.6493	6432
1141.25	25.2520	2.3803	6436
1141.80	21.7714	2.2428	6441
1142.35	23.1457	2.3738	6445
1142.90	21.6253	2.0103	6450
1143.45	21.5551	1.6741	6454
1144.00	20.7654	1.3426	6459
1144.55	26.1363	1.8346	6464
1145.10	25.9100	1.7544	6468
1145.65	20.0111	1.2485	6473
1146.20	20.5784	1.3520	6477
1146.75	20.8649	1.1071	6481
1147.30	22.8418	1.5743	6486
1147.85	21.4556	1.4586	6490
1148.40	23.0316	1.4342	6495
1148.95	24.5128	1.5001	6499
1149.50	21.5282	1.3165	6504
1150.05	21.6803	1.1794	6508
1150.60	20.8878	1.3041	6513
1151.15	22.9057	1.2931	6517
1151.70	22.8141	1.5515	6522
1152.25	20.4429	1.2856	6526
1152.80	20.1490	1.5688	6530
1153.35	27.8195	2.6076	6535
1153.90	22.8160	1.4601	6540
1154.45	23.5990	1.9060	6544
1155.00	21.8650	1.6726	6549
1155.55	22.8750	1.6154	6553
1156.10	21.9629	1.5835	6558
1156.65	22.6805	1.1827	6562
1157.20	20.5833	1.7639	6567
1157.75	20.5666	1.6823	6571
1158.30	21.0638	1.6787	6576
1158.85	22.7813	1.8753	6580
1159.40	19.4204	1.6101	6585
1159.95	21.8072	1.7544	6589
1160.50	21.5921	1.0400	6594
1161.05	20.6822	0.9164	6598
1161.60	22.7022	1.1883	6602
1162.15	21.1778	1.2148	6607
1162.70	21.9463	1.3839	6612
1163.25	23.5279	1.8538	6617
1163.80	23.5918	2.3178	6621
1164.35	21.8605	1.6026	6625
1164.90	18.8905	1.1631	6630
1165.45	31.1954	2.7438	6635
1166.00	21.6975	1.7401	6639
1166.55	21.5775	1.7957	6644
1167.10	21.6115	1.6958	6648
1167.65	22.2676	1.5755	6653
1168.20	20.9708	1.3943	6657
1168.75	20.7119	1.9039	6662
1169.30	22.1383	1.8738	6666
1169.85	22.7746	1.9310	6671
1170.40	21.3677	1.5106	6675
1170.95	22.3862	2.0334	6680
1171.50	20.7999	1.8326	6684
1172.05	20.2744	1.6897	6688
1172.60	21.5099	1.9151	6693
1173.15	22.9445	1.9928	6697
1173.70	21.9621	1.9118	6702
1174.25	20.5542	1.7995	6706
1174.80	20.5282	1.8502	6711
1175.35	21.0529	1.7293	6716
1175.90	22.0317	1.6167	6720
1176.45	20.5851	1.2214	6725
1177.00	20.4498	1.6057	6729
1177.55	20.7752	1.4472	6733
1178.10	23.1851	2.0491	6738
1178.65	22.0517	1.7443	6742
1179.20	20.9922	2.0006	6747
1179.75	21.2731	2.2929	6752
1180.30	21.8742	2.1308	6756
1180.85	21.8385	1.9338	6761
1181.40	20.8160	1.8443	6766
1181.95	22.4340	1.8416	6770
1182.50	24.3219	1.8110	6775
1183.05	22.1572	1.7237	6779
1183.60	19.6458	1.2990	6784
1184.15	21.1575	1.5524	6789
1184.70	20.7431	1.6969	6794
1185.25	23.6728	2.1247	6798
1185.80	21.5070	1.6798	6803
1186.35	23.3511	2.4411	6807
1186.90	21.5001	1.6746	6812
1187.45	20.6876	1.5453	6817
1188.00	21.2427	1.4687	6821
1188.55	22.7164	1.7603	6826
1189.10	20.6955	1.1959	6831
1189.65	21.6313	1.3431	6836
1190.20	23.8011	1.6670	6840
1190.75	21.4613	1.6404	6844
1191.30	21.5442	1.8486	6849
1191.85	23.9829	1.9104	6854
1192.40	24.2329	1.9935	6858
1192.95	23.0255	1.7800	6862
1193.50	21.3352	1.2064	6867
1194.05	20.8637	1.0952	6872
1194.60	21.4363	1.1037	6877
1195.15	20.4509	1.0171	6881
1195.70	20.3355	1.2809	6886
1196.25	21.0501	1.6192	6890
1196.80	22.8893	1.2681	6895
1197.35	20.9489	1.4154	6899
1197.90	21.0467	1.8767	6904
1198.45	23.6404	2.5986	6909
1199.00	21.5212	1.8462	6914
1199.55	21.0680	1.9000	6918
1200.10	22.2546	1.8357	6923
1200.65	22.8288	1.9756	6927
1201.20	21.2268	1.5910	6932
1201.75	22.9210	1.7042	6937
1202.30	20.6470	1.6900	6941
1202.85	23.2030	2.4034	6946
1203.40	22.8170	1.9514	6950
1203.95	22.7878	1.8216	6955
1204.50	21.3111	2.2183	6959
1205.05	21.6311	1.7987	6964
1205.60	22.0514	1.6168	6969
1206.15	17.7345	1.9670	6974
1206.70	20.0552	1.3865	6979
1207.25	20.0393	1.4552	6983
1207.80	23.8667	2.4005	6988
1208.35	23.6326	2.4232	6993
1208.90	21.4895	2.0666	6997
1209.45	22.5921	2.0268	7002
1210.00	23.5597	1.9033	7007
1210.55	20.8936	1.3285	7011
1211.10	19.9524	1.3913	7016
1211.65	20.5552	1.4189	7021
1212.20	20.2727	1.1139	7025
1212.75	22.1855	1.5998	7030
1213.30	22.5641	1.6465	7035
1213.85	22.0291	1.6387	7040
1214.40	24.9036	2.2002	7045
1214.95	22.9388	1.9595	7049
1215.50	26.4316	3.1657	7054
1216.05	19.7120	2.0020	7059
1216.60	19.5456	1.7537	7064
1217.15	23.8156	2.0368	7069
1217.70	22.1504	1.6864	7074
1218.25	20.2446	1.8292	7079
1218.80	21.9085	2.4085	7084
1219.35	21.7578	1.8185	7088
1219.90	25.4601	2.4216	7093
1220.45	23.0445	1.9372	7097
1221.00	22.2897	1.8662	7102
1221.55	23.0411	2.1532	7106
1222.10	22.6163	1.8531	7111
1222.65	20.2480	1.7243	7116
1223.20	21.1117	1.8229	7121
1223.75	21.6494	1.9349	7126
1224.30	20.6693	1.9459	7131
1224.85	43.2152	4.6388	7135
1225.40	21.5383	1.9080	7140
1225.95	19.8030	1.6429	7144
1226.50	20.4320	1.3550	7149
1227.05	18.4708	1.5600	7154
1227.60	20.3745	2.0593	7159
1228.15	22.4763	2.4140	7163
1228.70	21.0157	1.7886	7168
1229.25	19.2023	1.1580	7173
1229.80	23.2352	2.0206	7177
1230.35	22.9234	1.9486	7182
1230.90	21.4962	1.9024	7187
1231.45	20.7169	1.6471	7191
1232.00	27.6947	3.1637	7196
1232.55	22.6998	1.8854	7201
1233.10	22.5099	2.2469	7205
1233.65	23.9643	2.5091	7210
1234.20	22.2487	2.2796	7215
1234.75	23.2553	2.2955	7219
1235.30	20.7790	1.4912	7224
1235.85	20.1101	1.3755	7228
1236.40	22.0430	1.7229	7233
1236.95	24.8580	2.1680	7238
1237.50	19.3006	1.9916	7243
1238.05	19.4712	1.9505	7248
1238.60	20.8061	1.9860	7252
1239.15	22.9267	2.0709	7257
1239.70	21.7070	2.2242	7262
1240.25	21.6581	2.0703	7267
1240.80	20.8921	1.9487	7272
1241.35	21.7109	1.6885	7276
1241.90	21.6722	2.1810	7281
1242.45	20.3256	1.8898	7285
1243.00	20.0697	1.4111	7290
1243.55	22.2995	1.6750	7295
1244.10	18.9986	1.5917	7300
1244.65	21.3196	1.8413	7304
1245.20	20.0574	1.6918	7309
1245.75	21.3933	1.9273	7314
1246.30	20.9121	1.5212	7319
1246.85	19.9390	1.6039	7324
1247.40	18.7906	1.2317	7328
1247.95	20.0814	1.2098	7333
1248.50	19.9199	1.2099	7338
1249.05	20.1528	1.6039	7343
1249.60	19.6544	1.3069	7347
1250.15	20.4955	1.1412	7352
1250.70	20.4284	1.4648	7357
1251.25	20.1399	1.5406	7362
1251.80	27.5584	3.0590	7366
1252.35	22.3176	1.6611	7371
1252.90	22.4734	1.8621	7376
1253.45	21.3966	1.6312	7381
1254.00	19.8128	1.6296	7386
1254.55	18.9645	1.5170	7391
1255.10	22.5904	2.0964	7395
1255.65	21.0136	1.9530	7400
1256.20	22.7894	2.0246	7405
1256.75	20.9508	2.0102	7410
1257.30	25.1650	2.3102	7415
1257.85	21.4645	1.8014	7420
1258.40	21.6767	1.4452	7424
1258.95	23.8343	2.4693	7429
1259.50	23.2989	2.5086	7434
1260.05	21.6995	1.9105	7439
1260.60	21.5507	1.9989	7444
1261.15	22.6460	2.2022	7449
1261.70	23.6938	2.4992	7453
1262.25	24.5212	3.0505	7458
1262.80	19.2406	1.8246	7463
1263.35	22.4171	1.9078	7468
1263.90	22.6734	1.9992	7473
1264.45	19.3676	2.1218	7478
1265.00	21.8123	2.2082	7483
1265.55	20.0519	1.7046	7488
1266.10	21.0467	1.7921	7492
1266.65	19.7828	1.9563	7497
1267.20	20.1460	1.7047	7502
1267.75	23.9967	2.9022	7507
1268.30	23.2814	2.5224	7512
1268.85	26.3166	2.6928	7516
1269.40	33.0705	3.6905	7521
1269.95	21.7800	2.1211	7526
1270.50	23.7752	1.8589	7532
1271.05	21.5064	1.6348	7536
1271.60	20.9836	1.9787	7541
1272.15	20.8877	1.9072	7546
1272.70	21.4347	2.0686	7551
1273.25	21.2786	2.1017	7556
1273.80	19.4133	1.8553	7561
1274.35	19.4974	1.6885	7566
1274.90	22.4777	1.5707	7571
1275.45	21.9135	1.4658	7576
1276.00	20.0801	1.7515	7581
1276.55	22.8799	2.2388	7586
1277.10	21.5463	1.9533	7591
1277.65	21.3508	2.1955	7596
1278.20	19.4091	1.4265	7601
1278.75	19.2812	1.1296	7606
1279.30	21.4380	1.8579	7611
1279.85	21.2229	1.5956	7616
1280.40	20.9343	2.2208	7621
1280.95	21.3747	2.2280	7625
1281.50	19.7379	1.6638	7630
1282.05	21.5291	2.1355	7635
1282.60	21.1518	2.4640	7640
1283.15	20.8720	2.1383	7644
1283.70	20.9581	1.8317	7649
1284.25	23.7149	2.5959	7655
1284.80	20.4526	1.9997	7659
1285.35	20.1531	1.7828	7664
1285.90	21.5898	1.6406	7669
1286.45	20.5060	1.6752	7674
1287.00	21.1591	1.9122	7679
1287.55	20.7169	1.9128	7684
1288.10	23.5378	2.2071	7689
1288.65	22.0200	1.7653	7694
1289.20	20.8994	1.7365	7699
1289.75	22.7427	2.3576	7704
1290.30	19.6485	1.6166	7709
1290.85	23.6637	2.2171	7714
1291.40	18.5647	1.6012	7719
1291.95	18.9949	1.6023	7724
1292.50	21.9871	2.3340	7729
1293.05	21.4105	1.8837	7733
1293.60	19.9076	1.9141	7739
1294.15	20.3665	2.5018	7744
1294.70	19.5752	1.4416	7748
1295.25	24.0808	2.1668	7753
1295.80	20.4555	2.3059	7758
1296.35	21.0704	2.6855	7763
1296.90	23.1124	2.8268	7768
1297.45	20.4120	2.2266	7773
1298.00	20.5290	2.3442	7778
1298.55	19.1943	2.2603	7783
1299.10	20.9032	2.5041	7788
1299.65	19.8738	1.5753	7793
1300.20	25.2157	1.8514	7798
1300.75	18.8866	1.0542	7803
1301.30	18.0953	1.2022	7808
1301.85	18.7134	1.0142	7814
1302.40	21.5665	1.4683	7819
1302.95	19.1633	1.1298	7824
1303.50	19.4802	1.1039	7829
1304.05	19.9299	1.1052	7834
1304.60	24.4153	1.6608	7839
1305.15	19.2832	1.1435	7844
1305.70	19.8363	1.1182	7849
1306.25	22.4599	1.2091	7854
1306.80	20.9964	1.4855	7860
1307.35	20.3812	1.4763	7864
1307.90	16.9966	1.2126	7870
1308.45	16.5160	0.8960	7875
1309.00	19.6143	1.2019	7880
1309.55	21.6613	1.3235	7885
1310.10	17.8670	0.9444	7890
1310.65	20.8557	1.2762	7895
1311.20	19.8890	1.1144	7900
1311.75	21.3074	1.6252	7905
1312.30	19.6404	1.3461	7910
1312.85	20.1992	1.3899	7915
1313.40	22.0149	1.2343	7920
1313.95	19.9638	1.1262	7925
1314.50	17.2778	1.1079	7930
1315.05	21.0053	1.4728	7935
1315.60	20.8760	1.5135	7941
1316.15	19.3133	1.3005	7946
1316.70	21.6449	1.2375	7951
1317.25	21.1025	1.6565	7956
1317.80	19.7257	1.3544	7962
1318.35	18.4742	1.1125	7967
1318.90	19.9685	1.5065	7973
1319.45	19.7846	1.2981	7978
1320.00	20.8235	1.3343	7983
1320.55	21.2990	1.1759	7989
1321.10	19.9603	1.1716	7995
1321.65	19.5830	1.2324	8000
1322.20	22.5947	1.5213	8005
1322.75	21.2593	1.1248	8010
1323.30	21.7888	1.5951	8015
1323.85	19.6350	1.2457	8020
1324.40	20.1050	1.1919	8025
1324.95	20.9677	1.1567	8031
1325.50	16.4759	0.8637	8037
1326.05	18.6835	1.4581	8042
1326.60	18.6040	1.4256	8048
1327.15	18.2949	1.3660	8053
1327.70	17.1959	1.0732	8059
1328.25	19.5151	1.5800	8065
1328.80	18.5067	1.3835	8071
1329.35	19.0937	0.9806	8075
1329.90	20.5772	1.3342	8080
1330.45	18.1400	0.9538	8086
1331.00	17.4492	1.1453	8092
1331.55	24.9298	1.5247	8098
1332.10	24.7786	1.7291	8104
1332.65	21.1612	1.2342	8109
1333.20	19.0025	0.7564	8115
1333.75	24.4676	1.5629	8120
1334.30	22.8790	1.5482	8127
1334.85	22.6594	1.5451	8134
1335.40	22.1991	1.6297	8140
1335.95	26.2157	1.5676	8146
1336.50	25.1291	1.9337	8151
1337.05	24.3053	1.6597	8157
1337.60	22.4488	1.3859	8162
1338.15	19.4865	1.1119	8167
1338.70	20.9741	1.3135	8174
1339.25	23.1892	1.8836	8179
1339.80	22.6749	1.6303	8184
1340.35	28.5405	2.2452	8189
1340.90	23.8500	1.6139	8194
1341.45	21.1506	1.4264	8200
1342.00	23.1567	1.3501	8205
1342.55	25.0263	1.7459	8210
1343.10	24.6667	1.5528	8216
1343.65	23.4354	1.3868	8221
1344.20	20.4897	1.0408	8226
1344.75	21.5085	1.1691	8231
1345.30	22.7276	1.5098	8237
1345.85	22.0249	1.1263	8242
1346.40	29.3284	2.4723	8247
1346.95	20.7442	1.3931	8253
1347.50	20.9757	0.9717	8258
1348.05	24.8138	1.3305	8264
1348.60	23.7272	1.2425	8269
1349.15	22.1781	1.3812	8275
1349.70	21.5565	1.3175	8280
1350.25	24.2139	1.6730	8285
1350.80	21.1084	1.2870	8290
1351.35	21.8892	1.2539	8295
1351.90	19.9913	1.0547	8301
1352.45	23.5446	1.3332	8306
1353.00	23.2089	1.2635	8312
1353.55	21.6710	1.3406	8317
1354.10	26.4831	2.0431	8323
1354.65	37.8374	3.0548	8328
1355.20	20.9399	1.4754	8334
1355.75	21.3767	1.3875	8339
1356.30	20.1644	1.3020	8344
1356.85	23.6376	1.5782	8349
1357.40	21.8126	1.3035	8355
1357.95	22.0152	1.4600	8361
1358.50	23.8202	1.5303	8366
1359.05	26.6338	1.8929	8372
1359.60	25.2309	1.7884	8377
1360.15	21.8260	1.2187	8383
1360.70	23.2686	1.6320	8388
1361.25	26.2564	2.2074	8393
1361.80	26.2482	1.6308	8398
1362.35	27.2722	2.0437	8403
1362.90	26.1357	1.9989	8409
1363.45	22.7502	1.2472	8415
1364.00	22.4905	1.3396	8420
1364.55	22.5443	1.3591	8425
1365.10	22.6360	1.3357	8431
1365.65	22.4953	1.4596	8436
1366.20	24.1023	1.6622	8442
1366.75	23.0959	1.3536	8447
1367.30	25.3674	1.8114	8452
1367.85	23.0086	1.6835	8458
1368.40	26.8580	2.6345	8463
1368.95	30.4110	3.0753	8469
1369.50	20.0570	1.1875	8474
1370.05	21.8646	1.5002	8479
1370.60	22.9060	1.8066	8485
1371.15	20.4506	1.5406	8490
1371.70	21.9052	1.8849	8496
1372.25	20.5965	1.6904	8501
1372.80	22.6985	1.6010	8506
1373.35	20.4904	1.1709	8511
1373.90	19.9884	1.0866	8517
1374.45	22.5901	1.8429	8523
1375.00	21.5036	1.9925	8528
1375.55	21.1689	1.9612	8533
1376.10	20.8299	1.8765	8539
1376.65	18.9465	1.2236	8545
1377.20	18.4232	1.2440	8550
1377.75	20.1728	1.6844	8556
1378.30	19.7986	1.6883	8561
1378.85	22.3724	2.1429	8568
1379.40	21.0504	1.8668	8573
1379.95	44.4840	4.7018	8579
1380.50	32.4132	3.0379	8584
1381.05	22.1460	1.0075	8590
1381.60	23.5503	1.2694	8596
1382.15	22.2474	1.1739	8601
1382.70	19.9129	1.5064	8606
1383.25	21.2413	1.6266	8612
1383.80	17.6808	0.9293	8618
1384.35	18.7895	1.2798	8623
1384.90	23.7519	2.0784	8629
1385.45	22.2436	2.5951	8635
1386.00	25.7501	2.2153	8640
1386.55	21.7479	1.7749	8645
1387.10	21.3566	1.5420	8651
1387.65	20.3414	1.5751	8656
1388.20	23.7624	2.1099	8662
1388.75	19.0833	1.1426	8667
1389.30	19.1017	1.5309	8673
1389.85	21.4788	1.4884	8678
1390.40	23.2800	2.0643	8684
1390.95	20.5629	1.5818	8689
1391.50	21.0160	1.5074	8695
1392.05	20.4696	1.4405	8701
1392.60	20.3558	1.3873	8706
1393.15	19.3820	1.1627	8712
1393.70	19.6851	1.2679	8718
1394.25	23.0820	1.9295	8723
1394.80	23.7487	1.8366	8729
1395.35	22.2130	1.4054	8734
1395.90	19.8210	1.3206	8739
1396.45	19.2929	1.3989	8745
1397.00	19.8102	1.5047	8751
1397.55	19.4354	1.2900	8757
1398.10	19.0673	1.6387	8762
1398.65	18.3049	1.3475	8768
1399.20	20.3545	1.6540	8773
1399.75	21.1429	1.8297	8779
1400.30	20.4505	1.6254	8785
1400.85	18.5732	0.9803	8790
1401.40	21.8444	1.8491	8795
1401.95	22.0617	1.6407	8801
1402.50	21.2490	1.5754	8806
1403.05	20.2548	1.1175	8812
1403.60	23.4086	1.8601	8817
1404.15	31.4139	3.2164	8823
1404.70	21.1114	1.4498	8828
1405.25	20.7145	1.6068	8833
1405.80	22.9790	2.0131	8839
1406.35	21.0752	1.3068	8844
1406.90	16.7139	0.8372	8850
1407.45	17.3919	1.1620	8855
1408.00	17.1000	1.3691	8861
1408.55	18.9719	1.7706	8866
1409.10	20.0356	1.5908	8872
1409.65	20.3458	1.6318	8877
1410.20	20.1286	1.1418	8883
1410.75	20.1600	1.2884	8888
1411.30	22.6999	1.3659	8894
1411.85	21.3332	0.5870	8900
1412.40	19.3884	0.7599	8905
1412.95	21.1481	1.1916	8911
1413.50	23.1502	1.6682	8916
1414.05	26.5249	2.5254	8923
1414.60	23.7203	2.2134	8928
1415.15	22.8695	1.5137	8934
1415.70	22.9560	1.2884	8940
1416.25	22.4840	1.1721	8946
1416.80	21.5306	1.4186	8951
1417.35	19.2266	1.0644	8957
1417.90	21.1161	1.3566	8963
1418.45	23.4355	1.9560	8969
1419.00	19.2686	1.0264	8974
1419.55	18.4242	1.0685	8980
1420.10	18.3119	1.2105	8986
1420.65	19.2185	1.4329	8991
1421.20	20.5802	1.5009	8997
1421.75	19.6360	1.3918	9003
1422.30	19.8309	1.1301	9009
1422.85	20.4220	1.3472	9015
1423.40	20.3605	1.5716	9020
1423.95	20.0726	1.6813	9025
1424.50	21.9409	1.6863	9031
1425.05	26.8587	2.5627	9036
1425.60	20.4798	1.8246	9042
1426.15	21.8943	2.5079	9047
1426.70	19.2181	1.5976	9053
1427.25	25.0898	2.4139	9059
1427.80	19.7258	1.5494	9064
1428.35	18.0185	1.3755	9070
1428.90	20.7350	1.3860	9075
1429.45	22.0146	1.8004	9081
1430.00	19.4157	1.5433	9087
1430.55	20.7455	1.7500	9092
1431.10	20.4747	1.5128	9099
1431.65	21.8923	1.9105	9104
1432.20	23.3714	2.3433	9110
1432.75	22.5517	1.9833	9116
1433.30	20.9594	1.6140	9122
1433.85	21.3347	1.4620	9127
1434.40	20.5168	1.6738	9133
1434.95	21.6371	2.3266	9139
1435.50	18.6123	1.5122	9145
1436.05	22.0820	2.2404	9151
1436.60	18.4508	1.6704	9157
1437.15	19.3214	1.9160	9164
1437.70	20.5523	2.3417	9170
1438.25	22.0293	2.7704	9176
1438.80	19.5544	2.2700	9182
1439.35	17.0827	1.1433	9188
1439.90	19.3937	1.6827	9193
1440.45	18.8236	1.2898	9199
1441.00	18.9599	0.6454	9205
1441.55	22.2875	1.3553	9211
1442.10	18.9813	1.2531	9217
1442.65	23.3270	1.6814	9222
1443.20	19.6781	1.0675	9228
1443.75	20.1217	1.4385	9234
1444.30	21.3618	0.9190	9239
1444.85	21.0637	1.0760	9245
1445.40	20.6478	0.8245	9251
1445.95	24.8886	2.5425	9257
1446.50	20.1391	1.9657	9263
1447.05	18.7918	1.2883	9269
1447.60	22.3072	1.7771	9274
1448.15	19.0166	0.7862	9280
1448.70	19.4415	1.8181	9286
1449.25	20.2149	1.9110	9291
1449.80	19.6625	1.9167	9297
1450.35	20.8252	2.2982	9303
1450.90	20.0448	1.6135	9309
1451.45	18.9174	1.5065	9314
1452.00	21.8587	2.3899	9320
1452.55	26.0140	2.9845	9326
1453.10	20.1132	1.6697	9332
1453.65	20.3820	1.3536	9338
1454.20	20.6454	1.5156	9343
1454.75	21.8265	1.7475	9349
1455.30	23.5543	1.8500	9355
1455.85	20.8790	1.2350	9361
1456.40	23.1352	1.8416	9366
1456.95	25.4987	2.1065	9373
1457.50	25.0953	1.7571	9378
1458.05	24.0029	1.8442	9384
1458.60	25.0619	1.8708	9390
1459.15	26.9468	2.7906	9396
1459.70	30.0241	3.1452	9402
1460.25	25.9629	1.8630	9408
1460.80	26.7094	2.8441	9413
1461.35	28.1620	3.2412	9420
1461.90	28.1927	2.6566	9425
1462.45	27.1797	2.5057	9431
1463.00	22.9416	1.9785	9438
1463.55	19.2335	1.1846	9444
1464.10	21.0862	1.4491	9451
1464.65	21.3124	2.0631	9457
1465.20	24.3857	1.5238	9462
1465.75	18.8067	0.8919	9468
1466.30	21.8141	1.6466	9474
1466.85	23.3604	2.5098	9480
1467.40	19.4922	1.8390	9486
1467.95	18.4604	1.7954	9492
1468.50	19.6745	1.7249	9498
1469.05	21.8105	1.9641	9504
1469.60	19.4538	1.5695	9510
1470.15	20.2974	1.4459	9516
1470.70	18.5523	1.3299	9522
1471.25	17.9446	1.2879	9528
1471.80	21.0592	1.5170	9534
1472.35	20.3938	1.5207	9540
1472.90	18.6990	1.2428	9546
1473.45	19.6269	1.3407	9552
1474.00	23.2099	2.0376	9558
1474.55	18.8669	1.2222	9564
1475.10	21.9090	1.8376	9569
1475.65	22.3645	2.1667	9575
1476.20	22.1402	2.1719	9581
1476.75	20.0103	1.6257	9587
1477.30	22.5493	2.0879	9594
1477.85	19.9038	1.8317	9600
1478.40	20.1049	1.9718	9606
1478.95	21.7611	1.7878	9612
1479.50	22.4335	1.6608	9618
1480.05	23.1550	1.8291	9624
1480.60	20.5630	1.8705	9630
1481.15	23.6324	2.6859	9636
1481.70	21.6028	2.0740	9642
1482.25	24.2069	2.5594	9648
1482.80	26.3649	2.6995	9654
1483.35	26.2457	3.2225	9661
1483.90	24.5908	2.7556	9667
1484.45	22.4569	1.9226	9673
1485.00	22.6751	2.0703	9679
1485.55	20.3547	1.3974	9686
1486.10	21.2402	1.8541	9692
1486.65	19.7880	1.3600	9697
1487.20	21.8846	2.0992	9704
1487.75	20.0742	1.7829	9710
1488.30	21.5240	2.0378	9716
1488.85	22.3959	1.9210	9722
1489.40	23.5689	1.8163	9728
1489.95	21.2646	2.0536	9734
1490.50	20.1618	1.8875	9740
1491.05	24.0084	2.5779	9746
1491.60	22.9994	2.3062	9753
1492.15	23.3598	2.5134	9758
1492.70	27.0076	2.9196	9764
1493.25	21.1974	1.6409	9771
1493.80	21.6963	2.0476	9777
1494.35	22.4879	1.9646	9783
1494.90	20.2637	1.8121	9789
1495.45	21.1739	1.7693	9795
1496.00	24.2268	2.5821	9802
1496.55	20.3081	1.9374	9809
1497.10	20.5269	2.1167	9815
1497.65	22.3986	2.3260	9821
1498.20	22.9313	2.1389	9827
1498.75	20.6899	2.0201	9833
1499.30	21.1953	2.2592	9839
1499.85	28.2935	3.6169	9845
1500.40	24.2826	2.3880	9852
1500.95	22.3513	2.1878	9858
1501.50	22.4362	2.1129	9864
1502.05	25.2808	2.7053	9870
1502.60	23.9915	2.4999	9876
1503.15	21.3660	2.0561	9883
1503.70	22.1750	2.3944	9889
1504.25	25.6040	2.7816	9895
1504.80	24.6090	2.0050	9902
1505.35	30.7469	3.4616	9909
1505.90	26.8895	3.0581	9915
1506.45	27.4594	2.6562	9922
1507.00	22.2380	1.7483	9929
1507.55	22.9020	1.9096	9935
1508.10	26.0206	2.6265	9941
1508.65	23.7937	2.4679	9948
1509.20	22.2937	2.1694	9955
1509.75	20.1103	1.3421	9962
1510.30	21.3638	1.9640	9968
1510.85	23.8524	2.1656	9974
1511.40	23.1959	2.7226	9980
1511.95	24.0182	3.1160	9987
1514.15	20.0952	1.6555	10014
1514.70	20.4683	2.2589	10020
1515.25	18.8109	1.3401	10026
1515.80	21.8835	1.7716	10032
1516.35	20.5019	1.5547	10039
1516.90	29.3216	2.8574	10045
1517.45	24.1223	1.5880	10052
1518.00	21.2833	1.8500	10059
1519.65	21.3568	2.1631	10079
1520.20	22.8632	2.0713	10085
1520.75	26.5443	2.7920	10092
1521.30	20.6923	1.8229	10099
1521.85	19.7312	1.2221	10106
1522.40	22.4856	1.7167	10112
1522.95	22.0414	1.4582	10120
1523.50	20.0456	1.3115	10127
1524.05	20.6700	1.4763	10134
1524.60	22.3525	1.6425	10140
1525.15	22.9662	2.0338	10147
1525.70	22.3015	2.1588	10154
1526.25	19.4874	1.4810	10161
1526.80	21.0817	1.4620	10168
1527.35	20.7254	1.3464	10174
1527.90	20.9017	1.7688	10181
1528.45	27.9105	3.0039	10188
1529.00	31.7332	3.0395	10195
1529.55	31.4425	3.3329	10202
1530.10	24.4973	2.5750	10208
1530.65	21.9416	2.3944	10215
1531.20	17.4246	1.4792	10222
1531.75	17.2040	1.5923	10229
1532.30	20.1919	2.2713	10237
1532.85	17.2405	1.8312	10244
1533.40	15.3716	1.5525	10252
1533.95	16.2055	1.5393	10259
1534.50	18.0228	1.9029	10266
1535.05	19.6400	1.7594	10273
1535.60	18.2300	1.5406	10280
1536.15	24.2982	2.5594	10286
1536.70	20.8476	1.8326	10293
1537.25	20.1042	1.6302	10300
1537.80	22.2291	2.3953	10307
1538.35	19.2670	1.5889	10314
1538.90	36.2276	4.7234	10320
1539.45	18.8750	1.6593	10327
1540.00	20.1174	1.9589	10334
1540.55	20.1213	1.9425	10340
1541.10	21.0613	2.2046	10348
1541.65	18.6348	1.9554	10354
1542.20	21.2235	2.2815	10361
1542.75	20.8048	2.2235	10369
1543.30	20.9950	2.0608	10376
1543.85	18.1125	1.6301	10383
1544.40	21.5704	2.5534	10390
1544.95	21.6930	2.0824	10397
1545.50	21.8265	2.0080	10404
1546.05	18.5827	1.6333	10412
1546.60	21.8787	2.2017	10419
1547.15	20.9186	1.7805	10427
1547.70	22.7220	1.8620	10434
1548.25	21.4650	1.8456	10441
1548.80	21.1699	1.5805	10448
1549.35	22.4514	1.9739	10455
1549.90	22.8362	1.9820	10462
1550.45	25.3146	2.5687	10469
1551.00	22.4471	1.8126	10476
1551.55	23.3612	2.3699	10483
1552.10	24.0727	1.8013	10491
1552.65	23.1207	1.6349	10498
1553.20	22.2258	1.6166	10505
1553.75	26.4508	2.2662	10512
1554.30	22.7637	2.1323	10519
1554.85	20.4027	1.8491	10527
1555.40	20.1173	1.4065	10535
1555.95	18.4444	1.4202	10542
1556.50	24.0317	2.2919	10548
1557.05	19.6150	2.0811	10556
1557.60	15.3099	1.0768	10564
1558.15	18.6823	1.7326	10571
1558.70	17.6392	1.4472	10579
1559.25	19.3802	1.6475	10587
1559.80	20.0412	1.9601	10594
1560.35	20.2753	1.9204	10602
1560.90	21.1131	1.6417	10609
1561.45	23.4123	2.1421	10616
1562.00	24.1727	2.1571	10623
1562.55	22.2801	2.3512	10630
1563.10	26.4453	2.8188	10638
1563.65	25.1575	2.2964	10646
1564.20	24.3366	2.5318	10653
1564.75	21.5510	2.2988	10661
1565.30	21.5916	1.8818	10668
1565.85	20.3524	1.6218	10677
1566.40	20.3012	1.8404	10686
1566.95	22.3603	2.1472	10693
1567.50	19.6339	1.5271	10701
1568.05	19.0600	1.3761	10709
1568.60	18.5877	1.4090	10717
1569.15	19.0509	1.5134	10725
1569.70	20.9305	1.6280	10733
1570.25	22.0746	1.7672	10741
1570.80	21.0893	1.6658	10749
1571.35	20.6038	1.9729	10756
1571.90	23.2901	1.7311	10764
1572.45	22.8718	1.7478	10772
1573.00	24.3381	2.5594	10780
1573.55	23.8502	1.9420	10788
1574.10	25.1170	1.7782	10796
1574.65	25.0812	2.5665	10804
1575.20	21.2064	1.2850	10812
1575.75	23.1415	1.6256	10820
1576.30	21.2368	1.5099	10828
1576.85	19.0825	1.5211	10837
1577.40	19.3957	1.9013	10844
1577.95	18.0343	1.4786	10851
1578.50	19.5627	1.3461	10859
1579.05	19.3982	1.6319	10867
1579.60	20.8542	1.6724	10875
1580.15	22.3245	2.1525	10882
1580.70	21.8716	1.9073	10890
1581.25	19.2738	1.4515	10898
1581.80	19.7834	1.8412	10906
1582.35	20.6773	1.7871	10914
1582.90	22.0943	2.2887	10921
1583.45	24.5570	2.8962	10929
1584.00	22.7428	2.6947	10939
1584.55	20.2338	2.4689	10947
1585.10	21.2801	1.8513	10955
1585.65	21.6617	1.8608	10964
1586.20	19.6844	1.5538	10972
1586.75	20.8136	1.7639	10980
1587.30	27.2107	1.7406	10988
1587.85	25.0896	1.9570	10996
1588.40	25.3979	2.5610	11005
1588.95	21.7795	1.4906	11015
1589.50	20.7581	1.5521	11022
1590.05	17.6312	1.3724	11031
1590.60	20.5536	2.1494	11039
1591.15	25.6865	2.5207	11047
1591.70	21.9041	2.0588	11057
1592.25	22.4724	2.4824	11065
1592.80	26.8279	3.3848	11073
1593.35	27.8829	3.4806	11081
1593.90	23.5979	1.9483	11090
1594.45	24.2236	2.3031	11099
1595.00	25.0187	2.3868	11107
1595.55	29.5033	2.7163	11115
1596.10	25.2534	2.5912	11123
1596.65	24.7122	2.4889	11131
1597.20	20.8939	1.9074	11138
1597.75	20.8033	1.4725	11146
1598.30	23.8356	2.2783	11155
1598.85	30.8471	3.7659	11162
1599.40	18.9760	1.7682	11170
1599.95	19.6436	1.9548	11180
1600.50	22.6353	2.1214	11188
1601.05	20.7142	1.7690	11197
1601.60	19.1360	1.6512	11205
1602.15	18.3523	1.5620	11214
1602.70	21.1469	2.0901	11223
1603.25	22.9852	2.7531	11231
1603.80	22.1204	2.6086	11241
1604.35	21.7476	2.1620	11250
1604.90	21.1564	2.2060	11259
1605.45	20.5443	1.8378	11270
1606.00	19.0940	1.7464	11280
1606.55	20.7256	2.2027	11290
1607.10	18.2362	1.4904	11298
1607.65	18.7224	1.6011	11309
1608.20	18.8413	1.9077	11319
1608.75	18.3734	1.8151	11328
1609.30	21.6856	2.2195	11337
1609.85	21.4066	2.1616	11347
1610.40	18.4781	1.5519	11356
1610.95	20.5454	2.1765	11364
1611.50	21.3305	2.4242	11373
1612.05	20.7595	2.1116	11381
1612.60	18.5499	1.5589	11391
1613.15	15.6015	1.1184	11400
1613.70	16.7588	1.2838	11409
1614.25	17.7624	1.7202	11417
1614.80	19.5234	2.7682	11425
1615.35	20.8971	2.9722	11433
1615.90	19.5724	2.2437	11441
1616.45	16.7682	1.0562	11450
1617.00	18.1526	1.4447	11458
1617.55	16.0166	0.8472	11467
1618.10	20.5025	1.7613	11476
1618.65	20.4890	1.2725	11484
1619.20	21.4280	1.6475	11493
1619.75	20.1611	1.4402	11502
1620.30	21.7183	1.7646	11510
1620.85	19.0337	1.2128	11521
1621.40	18.2970	0.9740	11528
1621.95	19.2592	1.4627	11537
1622.50	17.2200	0.9330	11547
1623.05	17.8033	0.8801	11557
1623.60	14.4400	0.3998	11568
1624.15	12.5445	0.2178	11579
1624.70	9.4564	0.0060	11596
1625.25	10.2437	0.0045	11612
1625.80	9.6095	0.0040	11624
1626.35	9.8052	0.0040	11636
1626.90	9.7346	0.0033	11650
1627.45	11.7537	0.0068	11666
1628.00	10.4490	0.0187	11688
1628.55	9.9412	0.0037	11699
1629.10	10.2779	0.0029	11714
1629.65	10.0749	0.0037	11734
1630.20	9.9459	0.0027	11746
1630.75	10.0035	0.0042	11763
1631.30	9.2517	0.0044	11783
1631.85	9.5453	0.0026	11799
1632.40	9.7060	0.0020	11812
1632.95	9.6574	0.0176	11828
1633.50	10.3641	0.0703	11841
1634.05	10.3971	0.1056	11854
1634.60	10.7655	0.1233	11871
1635.15	9.8436	0.0021	11886
1635.70	9.7980	0.0021	11901
1636.25	10.2676	0.0018	11915
1636.80	10.8748	0.0021	11929
1637.35	10.1814	0.0035	11943
1637.90	10.2236	0.0019	11957
1638.45	10.4499	0.0024	11973
1639.00	10.9381	0.1162	11991
1639.55	10.5294	0.0349	12005
1640.10	10.4119	0.0023	12022
1640.65	10.3335	0.0027	12036
1641.20	11.9773	0.1167	12052
1641.75	9.6307	0.0034	12072
1642.30	10.0644	0.0026	12082
1642.85	10.0215	0.0020	12101
1643.40	10.8682	0.0016	12118
1643.95	10.0594	0.0020	12135
1644.50	10.1583	0.0024	12148
1645.05	9.4452	0.0023	12168
1645.60	9.2224	0.0022	12183
1646.15	9.0893	0.0021	12201
1646.70	8.5842	0.0017	12219
1647.25	8.6029	0.0030	12231
1647.80	9.3424	0.0015	12246
1648.35	8.7267	0.0014	12264
1648.90	8.0226	0.0022	12281
1649.45	9.0322	0.0016	12294
1650.00	8.5206	0.0014	12311
1650.55	9.1771	0.0174	12326
1651.10	9.3291	0.0023	12342
1651.65	9.0761	0.0017	12362
1652.20	9.3230	0.0018	12382
1652.75	11.1976	0.1339	12400
1653.30	9.4205	0.0030	12421
1653.85	9.5401	0.0022	12435
1654.40	10.5506	0.0017	12456
1654.95	10.2103	0.0016	12476
1655.50	10.7852	0.0015	12493
1656.05	10.6998	0.0018	12512
1656.60	10.6671	0.0014	12534
1657.15	10.6590	0.1031	12557
1657.70	12.3713	0.0013	12580
1658.25	9.2449	0.0016	12598
1658.80	9.6923	0.0019	12613
1659.35	10.5464	0.0022	12632
1659.90	9.5815	0.0093	12645
1660.45	10.4671	0.0412	12658
1661.00	10.3049	0.0594	12672
1661.55	13.7741	0.5005	12683
1662.10	15.3537	0.6392	12696
1662.65	13.7330	0.5882	12709
1663.20	27.1691	3.2645	12718
1663.75	15.8004	0.6552	12730
1664.30	17.7117	1.0866	12740
1664.85	17.1991	1.1528	12752
1665.40	17.1665	0.8110	12764
1665.95	18.2517	1.1460	12774
1666.50	24.8446	2.6092	12784
1667.05	15.8615	0.5926	12795
1667.60	18.7492	1.0032	12807
1668.15	23.4120	2.8838	12819
1668.70	17.9979	0.9085	12833
1669.25	14.0859	0.4753	12843
1669.80	11.7911	0.1221	12854
1670.35	12.1760	0.1169	12868
1670.90	15.4040	0.5967	12879
1671.45	12.3325	0.1968	12893
1672.00	11.6008	0.1423	12906
1672.55	12.4249	0.0938	12920
1673.10	10.2825	0.0404	12935
1673.65	9.2631	0.0034	12952
1674.20	8.9555	0.0045	12966
1674.75	10.2326	0.0472	12978
1675.30	9.3930	0.0025	12996
1675.85	12.7503	0.6054	13010
1676.40	10.4076	0.1211	13026
1676.95	10.3037	0.0674	13039
1677.50	15.9507	0.8283	13052
1678.05	10.9175	0.1133	13065
1678.60	12.0667	0.1994	13079
1679.15	10.9509	0.1670	13092
1679.70	12.3332	0.3994	13103
1680.25	15.7175	1.1775	13115
1680.80	14.0997	0.8529	13130
1681.35	11.8174	0.7122	13142
1681.90	9.4399	0.2654	13153
1682.45	10.6148	0.5762	13163
1683.00	10.8974	0.3871	13173
1683.55	9.7127	0.1154	13185
1684.10	12.2075	0.4646	13196
1684.65	12.2682	0.3867	13206
1685.20	13.0660	0.3867	13217
1685.75	14.0304	0.3595	13228
1686.30	12.5418	0.3635	13240
1686.85	15.6602	0.9076	13249
1687.40	17.7457	1.2637	13260
1687.95	15.4020	0.8015	13270
1688.50	14.9513	0.7523	13282
1689.05	19.7354	1.9700	13292
1689.60	16.1621	0.8394	13304
1690.15	16.6572	1.2527	13314
1690.70	17.7596	1.7234	13324
1691.25	16.2846	1.5024	13333
1691.80	20.2529	2.1536	13341
1692.35	19.6872	1.8327	13352
1692.90	18.7933	1.4882	13362
1693.45	19.9481	2.5267	13372
1694.00	22.0241	3.4985	13383
1694.55	23.8535	3.4420	13393
1695.10	21.4806	2.2941	13403
1695.65	25.9624	3.9447	13416
1696.20	26.3352	3.8010	13429
1696.75	15.4633	0.8913	13442
1697.30	17.3997	1.2821	13453
1697.85	16.2455	0.9638	13463
1698.40	12.0538	0.3599	13474
1698.95	12.8431	0.3355	13485
1699.50	13.1691	0.5422	13495
1700.05	14.5172	1.0098	13505
1700.60	12.4945	0.6510	13516
1701.15	13.0821	0.9484	13526
1701.70	11.4614	0.3625	13537
1702.25	11.8041	0.4224	13546
1702.80	12.2488	0.4403	13556
1703.35	13.3749	0.6408	13567
1703.90	13.8459	0.7216	13577
1704.45	11.4730	0.4140	13588
1705.00	16.5916	1.4344	13598
1705.55	14.0848	0.9727	13610
1706.10	19.5493	1.9134	13621
1706.65	12.9431	0.4589	13631
1707.20	10.1648	0.2248	13642
1707.75	12.6122	0.5486	13653
1708.30	13.5252	0.7010	13665
1708.85	16.4690	1.0937	13674
1709.40	15.2160	1.1150	13684
1709.95	13.3118	0.6370	13696
1710.50	13.6844	0.6763	13707
1711.05	12.0414	0.3824	13717
1711.60	14.1516	1.0323	13727
1712.15	11.9129	0.6247	13737
1712.70	13.2889	0.7332	13747
1713.25	15.8378	1.4252	13757
1713.80	13.3319	0.7442	13768
1714.35	12.9058	0.6867	13780
1714.90	9.3623	0.0987	13790
1715.45	8.1934	0.0021	13804
1716.00	9.2913	0.0034	13817
1716.55	13.0066	0.4998	13834
1717.10	18.0013	1.1429	13847
1717.65	14.7240	0.5106	13861
1718.20	14.0862	0.4153	13875
1718.75	20.8178	1.3577	13888
1719.30	15.4073	0.6749	13897
1719.85	16.6266	0.9731	13908
1720.40	18.3794	1.3986	13918
1720.95	18.2221	1.1098	13928
1721.50	23.1309	1.9710	13938
1722.05	20.6566	2.0248	13951
1722.60	21.4524	2.1087	13960
1723.15	15.9212	0.8482	13972
1723.70	19.5858	1.1546	13983
1724.25	18.6207	1.5461	13993
1724.80	18.7396	1.7338	14004
1725.35	22.0790	2.3119	14013
1725.90	19.4503	1.9485	14023
1726.45	19.2104	2.0904	14035
1727.00	18.1216	1.8312	14045
1727.55	20.8321	2.3548	14054
1728.10	21.0627	2.3867	14064
1728.65	21.2526	2.7386	14073
1729.20	16.2183	1.2979	14083
1729.75	19.5127	1.8350	14092
1730.30	20.5956	2.2952	14102
1730.85	20.1062	1.7264	14110
1731.40	20.2287	1.7194	14120
1731.95	20.7166	1.7078	14128
1732.50	21.9078	1.8360	14137
1733.05	16.6029	1.0818	14146
1733.60	19.0551	1.6788	14155
1734.15	20.5083	1.5113	14165
1734.70	18.6999	1.2688	14174
1735.25	19.4665	1.6003	14184
1735.80	16.8082	0.9852	14193
1736.35	18.6275	1.1877	14202
1736.90	16.4531	0.8379	14211
1737.45	17.2199	1.0586	14222
1738.00	15.6673	0.9213	14231
1738.55	21.5615	2.0993	14240
1739.10	18.3619	1.5552	14249
1739.65	19.3850	1.6067	14258
1740.20	18.3827	1.5884	14267
1740.75	18.8318	1.6102	14277
1741.30	18.3776	1.3837	14286
1741.85	21.8588	2.1269	14294
1742.40	19.8983	1.7203	14303
1742.95	18.3949	1.4803	14311
1743.50	18.3627	1.1608	14320
1744.05	21.1571	1.5304	14330
1744.60	18.4795	1.0794	14338
1745.15	16.3225	1.1039	14347
1745.70	15.0522	0.8488	14356
1746.25	13.0543	0.6129	14364
1746.80	13.1482	0.6856	14373
1747.35	13.4076	0.7989	14383
1747.90	13.6672	0.6666	14391
1748.45	13.4972	0.5347	14400
1749.00	15.5271	1.0477	14410
1749.55	16.5987	1.6294	14420
1750.10	14.5992	1.0313	14429
1750.65	9.9341	0.2188	14440
1751.20	11.7200	0.6122	14449
1751.75	10.2133	0.5097	14459
1752.30	9.0337	0.1897	14470
1752.85	8.8027	0.0213	14481
1753.40	11.0045	0.3584	14493
1753.95	8.2843	0.0022	14507
1754.50	9.9553	0.0281	14520
1755.05	13.6229	0.3166	14538
1755.60	10.6887	0.0041	14556
1756.15	11.7299	0.0897	14574
1756.70	10.2294	0.0034	14588
1757.25	11.0937	0.0031	14601
1757.80	10.7907	0.0028	14617
1758.35	11.8213	0.1488	14630
1758.90	10.6408	0.0029	14644
1759.45	11.3377	0.0029	14660
1760.00	10.7524	0.0171	14683
1760.55	9.4884	0.0020	14698
1761.10	9.9895	0.0027	14712
1761.65	10.0264	0.0027	14728
1762.20	10.1995	0.0027	14741
1762.75	9.9766	0.0035	14755
1763.30	9.7260	0.0035	14773
1763.85	10.5651	0.0120	14788
1764.40	10.7080	0.0091	14803
1764.95	10.4092	0.0074	14822
1765.50	10.0482	0.0019	14838
1766.05	10.5443	0.0018	14852
1766.60	9.4728	0.0019	14870
1767.15	9.0699	0.0030	14885
1767.70	9.0153	0.0032	14900
1768.25	8.9821	0.0048	14915
1768.80	9.7660	0.0017	14928
1769.35	10.0756	0.1226	14941
1769.90	9.0195	0.0028	14957
1770.45	9.8420	0.0018	14974
1771.00	11.0106	0.0013	14988
1771.55	11.2171	0.0011	15004
1772.10	10.2531	0.0028	15018
1772.65	11.0613	0.0026	15034
1773.20	10.6314	0.0028	15051
1773.75	10.0606	0.0021	15067
1774.30	9.8489	0.0018	15085
1774.85	10.6666	0.0020	15099
1775.40	10.6528	0.1040	15118
1775.95	10.0330	0.0024	15135
1776.50	9.7048	0.0022	15158
1777.05	9.7041	0.0019	15178
1777.60	9.1643	0.0023	15193
1778.15	8.8252	0.0831	15207
1778.70	8.6411	0.0012	15222
1779.25	8.8426	0.0359	15238
1779.80	9.4096	0.0018	15251
1780.35	8.3356	0.0026	15277
1780.90	7.9472	0.0027	15292
1781.45	8.4481	0.0029	15310
1782.00	9.5198	0.0030	15326
1782.55	9.1290	0.0022	15345
1783.10	8.7104	0.0020	15362
1783.65	8.6682	0.0019	15380
1784.20	8.3222	0.0026	15396
1784.75	7.5408	0.0025	15414
1785.30	7.0149	0.0023	15431
1785.85	7.8580	0.0017	15447
1786.40	9.4725	0.0032	15468
1786.95	9.3399	0.0032	15492
1787.50	8.9274	0.0032	15511
1788.05	9.2218	0.0024	15532
1788.60	10.9081	0.0024	15551
1789.15	11.0300	0.0022	15573
1789.70	10.1344	0.0025	15594
1790.25	10.8505	0.0026	15610
1790.80	10.6994	0.0021	15627
1791.35	10.0520	0.0023	15644
1791.90	10.2377	0.0026	15658
1792.45	9.1623	0.0027	15675
1793.00	11.1354	0.0429	15688
1793.55	10.1279	0.0016	15704
1794.10	9.6613	0.0012	15720
1794.65	10.3972	0.0022	15735
1795.20	9.7915	0.0023	15753
1795.75	9.9435	0.0018	15767
1796.30	9.7976	0.1104	15787
1796.85	9.8747	0.0028	15804
1797.40	9.1272	0.0023	15823
1797.95	10.1445	0.0025	15839
1798.50	9.9571	0.0019	15856
1799.05	9.3059	0.0021	15869
1799.60	9.2622	0.0024	15885
1800.15	9.3744	0.0024	15898
1800.70	9.4694	0.0026	15914
1801.25	8.6911	0.0041	15932
1801.80	9.3126	0.0038	15948
1802.35	9.4390	0.0037	15966
1802.90	9.4870	0.0114	15981
1803.45	9.4105	0.0097	16002
1804.00	9.3569	0.0062	16021
1804.55	8.1795	0.0027	16042
1805.10	9.1646	0.0024	16055
1805.65	8.5932	0.0023	16073
1806.20	8.3329	0.0022	16091
1806.75	9.3174	0.0022	16105
1807.30	9.0401	0.0018	16125
1807.85	9.5290	0.0013	16142
1808.40	9.5376	0.0018	16163
1808.95	9.6301	0.0014	16185
1809.50	9.1258	0.0016	16204
1810.05	9.1628	0.0016	16221
1810.60	8.9744	0.0015	16237
1811.15	9.2435	0.0024	16256
1811.70	8.9651	0.0026	16273
1812.25	8.9492	0.0023	16288
1812.80	8.9069	0.0016	16303
1813.35	9.2579	0.0018	16325
1813.90	9.4868	0.0014	16344
1814.45	8.8752	0.0016	16362
1815.00	8.6366	0.0017	16380
1815.55	9.3512	0.0025	16394
1816.10	9.5238	0.0024	16415
1816.65	8.8971	0.0022	16437
1817.20	8.9269	0.0033	16455
1817.75	9.5525	0.0030	16474
1818.30	9.4214	0.0025	16492
1818.85	9.8075	0.0027	16509
1819.40	9.8266	0.0027	16530
1819.95	11.6107	0.0017	16548
1820.50	11.3019	0.0011	16572
1821.05	10.1558	0.0018	16594
1821.60	10.6170	0.0017	16610
1822.15	10.5595	0.0018	16625
1822.70	10.6008	0.0017	16639
1823.25	10.1721	0.0015	16654
1823.80	10.5621	0.0021	16670
1824.35	10.3334	0.0019	16688
1824.90	8.8928	0.0020	16703
1825.45	7.8676	0.0069	16720
1826.00	7.8151	0.0046	16733
1826.55	8.6596	0.0045	16746
1827.10	8.9721	0.0037	16763
1827.65	8.1519	0.0042	16779
1828.20	9.0152	0.0033	16791
1828.75	9.3233	0.0025	16807
1829.30	9.4611	0.0028	16825
1829.85	9.2713	0.0023	16837
1830.40	9.0960	0.0024	16854
1830.95	9.0761	0.0026	16870
1831.50	9.7554	0.0022	16882
1832.05	9.5721	0.0012	16898
1832.60	9.3097	0.0020	16912
1833.15	9.4662	0.0022	16930
1833.70	8.9942	0.0017	16942
1834.25	9.0499	0.0018	16960
1834.80	8.7134	0.0021	16976
1835.35	8.5538	0.0024	16992
1835.90	9.6062	0.0023	17012
1836.45	9.9769	0.0019	17031
1837.00	8.8156	0.0020	17050
1837.55	8.6997	0.0019	17063
1838.10	9.7874	0.0023	17076
1838.65	10.5073	0.0025	17090
1839.20	10.4000	0.0019	17108
1839.75	10.6345	0.0018	17124
1840.30	9.4627	0.0021	17144
1840.85	8.7122	0.0021	17160
1841.40	8.6065	0.0026	17173
1841.95	8.0494	0.0020	17192
1842.50	9.2080	0.0030	17208
1843.05	9.5308	0.0034	17222
1843.60	9.3500	0.0020	17236
1844.15	9.2172	0.0021	17250
1844.70	10.3556	0.0024	17265
1845.25	10.4179	0.0020	17283
1845.80	10.7325	0.0019	17297
1846.35	10.6664	0.0019	17314
1846.90	10.2513	0.0019	17331
1847.45	11.0995	0.0020	17346
1848.00	10.3666	0.0022	17365
1848.55	10.0604	0.0018	17381
1849.10	9.6238	0.0019	17395
1849.65	8.3515	0.0020	17411
1850.20	8.2213	0.0019	17425
1850.75	8.7216	0.0018	17440
1851.30	9.2014	0.0018	17458
1851.85	9.2862	0.0022	17478
1852.40	8.2536	0.0020	17498
1852.95	9.4623	0.0018	17517
1853.50	8.9354	0.0022	17537
1854.05	9.2705	0.0021	17555
1854.60	8.3542	0.0018	17574
1855.15	10.0212	0.0017	17586
1855.70	9.8051	0.0022	17602
1856.25	9.9177	0.0020	17618
1856.80	8.9689	0.0019	17634
1857.35	10.9810	0.0016	17649
1857.90	10.3594	0.0015	17668
1858.45	9.7907	0.0023	17687
1859.00	9.6409	0.0020	17700
1859.55	10.1930	0.0015	17717
1860.10	9.7231	0.0019	17733
1860.65	8.7605	0.0016	17748
1861.20	8.4353	0.0015	17766
1861.75	9.5201	0.0025	17780
1862.30	9.7918	0.0026	17800
1862.85	8.9746	0.0025	17819
1863.40	9.3202	0.0020	17834
1863.95	9.1964	0.0018	17851
1864.50	10.0768	0.0019	17867
1865.05	10.0743	0.0021	17884
1865.60	9.2633	0.0018	17898
1866.15	8.6201	0.0025	17914
1866.70	9.3769	0.0021	17928
1867.25	8.6067	0.0095	17951
1867.80	8.9852	0.0019	17969
1868.35	8.1335	0.0018	17988
1868.90	9.1294	0.0036	18004
1869.45	8.5651	0.0021	18023
1870.00	9.1469	0.0021	18041
1870.55	9.4457	0.0024	18056
1871.10	9.2506	0.0019	18075
1871.65	8.8059	0.0022	18093
1872.20	9.9113	0.0018	18110
1872.75	9.6331	0.0018	18128
1873.30	8.9519	0.0019	18152
1873.85	9.4990	0.0023	18170
1874.40	9.4968	0.0022	18198
1874.95	8.7240	0.0018	18214
1875.50	8.5676	0.0017	18237
1876.05	7.8119	0.0015	18256
1876.60	8.9589	0.0020	18273
1877.15	8.6858	0.0018	18292
1877.70	9.1641	0.0022	18310
1878.25	9.0738	0.0017	18330
1878.80	9.3538	0.0018	18355
1879.35	10.1361	0.0015	18379
1879.90	10.1472	0.0016	18399
1880.45	9.8666	0.0018	18419
1881.00	10.2020	0.0013	18442
1881.55	9.4544	0.0142	18463
1882.10	10.2478	0.3110	18479
1882.65	8.6944	0.0019	18500
1883.20	8.2930	0.0020	18521
1883.75	8.6186	0.0023	18541
1884.30	9.9731	0.0016	18557
1884.85	10.0516	0.0017	18579
1885.40	9.7108	0.0020	18603
1885.95	9.7469	0.0016	18623
1886.50	8.4591	0.0016	18647
1887.05	7.8313	0.0018	18668
1887.60	7.4788	0.0017	18687
1888.15	8.0645	0.0016	18711
1888.70	9.0931	0.0015	18735
1889.25	8.6857	0.0015	18762
1889.80	8.9593	0.0016	18784
1890.35	9.1666	0.0015	18808
1890.90	10.3830	0.0022	18834
1891.45	11.0817	0.0024	18853
1892.00	11.0468	0.0025	18876
1892.55	10.8121	0.0018	18896
1893.10	11.3577	0.0017	18914
1893.65	10.4142	0.0019	18935
1894.20	10.9220	0.0022	18949
1894.75	11.0963	0.0025	18972
1895.30	10.8910	0.0019	18995
1895.85	10.8121	0.0022	19013
1896.40	10.4837	0.0019	19036
1896.95	10.4403	0.0021	19057
1897.50	10.8686	0.0020	19078
1898.05	9.3621	0.0023	19101
1898.60	8.9329	0.0022	19117
1899.15	9.1348	0.0018	19139
1899.70	9.5286	0.0022	19169
1900.25	9.7966	0.0020	19193
1900.80	9.4690	0.0019	19218
1901.35	8.7040	0.0022	19243
1901.90	9.5937	0.0017	19263
1902.45	7.9126	0.0016	19289
1903.00	10.6305	0.0028	19312
1903.55	10.8991	0.0025	19339
1904.10	10.1814	0.0021	19364
1904.65	11.2852	0.0021	19384
1905.20	11.0728	0.0023	19412
1905.75	11.1091	0.0022	19436
1906.30	11.0376	0.0082	19462
1906.85	11.2005	0.0078	19483
1907.40	11.3379	0.0072	19507
1907.95	11.5028	0.0024	19532
1908.50	11.0952	0.0021	19567
1909.05	11.0988	0.0020	19591
1909.60	11.0668	0.0019	19618
1910.15	10.6645	0.0019	19642
1910.70	11.3521	0.0015	19670
1911.25	11.3047	0.0017	19704
1911.80	10.4894	0.0013	19734
1912.35	9.8317	0.0016	19765
1912.90	9.5737	0.0017	19787
1913.45	9.5280	0.0014	19808
1914.00	9.2348	0.0016	19835
1914.55	9.2406	0.0021	19862
1915.10	9.4627	0.0018	19884
1915.65	9.0871	0.0015	19912
1916.20	9.3077	0.0020	19942
1916.75	9.8077	0.0023	19978
1917.30	9.6777	0.0021	20005
1917.85	9.2503	0.0021	20033
1918.40	9.5671	0.0016	20057
1918.95	11.0043	0.0018	20077
1919.50	11.4116	0.0022	20098
1920.05	11.4513	0.0018	20123
1920.60	11.7102	0.0016	20150
1921.15	11.2433	0.0019	20173
1921.70	11.2272	0.0019	20200
1922.25	10.7999	0.0016	20234
1922.80	11.2011	0.0022	20258
1923.35	11.3328	0.0018	20282
1923.90	10.8783	0.0024	20307
1924.45	10.6243	0.0021	20336
1925.00	10.5403	0.0020	20360
1925.55	10.7374	0.0019	20384
1926.10	10.1348	0.0038	20406
1926.65	9.9849	0.0020	20431
1927.20	10.0660	0.0014	20453
1927.75	10.5291	0.0019	20476
1928.30	11.2209	0.0019	20498
1928.85	10.5908	0.0018	20529
1929.40	10.9722	0.0019	20557
1929.95	10.8582	0.0020	20593
1930.50	9.8104	0.0016	20623
1931.05	9.6541	0.0030	20648
1931.60	9.5383	0.0032	20676
1932.15	10.0084	0.0026	20701
1932.70	10.7857	0.0022	20725
1933.25	10.0743	0.0021	20751
1933.80	9.6934	0.0016	20777
1934.35	10.2426	0.0019	20799
1934.90	11.4663	0.0017	20824
1935.45	11.4037	0.0017	20852
1936.00	10.7835	0.0021	20890
1936.55	9.9450	0.0020	20918
1937.10	9.0852	0.0020	20940
1937.65	9.4456	0.0032	20960
1938.20	9.4385	0.0026	20985
1938.75	9.7077	0.0031	21011
1939.30	9.6333	0.0022	21039
1939.85	9.1829	0.0020	21062
1940.40	8.8021	0.0019	21086
1940.95	8.7067	0.0019	21106
1941.50	7.7097	0.0021	21124
1942.05	7.8021	0.0020	21140
1942.60	8.0375	0.0018	21159
1943.15	9.1495	0.0021	21180
1943.70	9.1368	0.0023	21208
1944.25	9.6833	0.0018	21233
1944.80	9.5726	0.0019	21262
1945.35	10.1281	0.0020	21291
1945.90	10.4000	0.0015	21325
1946.45	10.1951	0.0018	21352
1947.00	10.1660	0.0018	21382
1947.55	9.3380	0.0020	21407
1948.10	9.9544	0.0018	21430
1948.65	9.3303	0.0021	21450
1949.20	9.2027	0.0022	21466
1949.75	9.1346	0.0022	21481
1950.30	8.7275	0.0022	21497
1950.85	7.9270	0.0018	21517
1951.40	7.7795	0.0019	21538
1951.95	8.0424	0.0019	21556
1952.50	7.6714	0.0014	21584
1953.05	9.2275	0.0020	21615
1953.60	9.5785	0.0021	21644
1954.15	9.7478	0.0017	21669
1954.70	9.7503	0.0017	21703
1955.25	11.3825	0.0014	21733
1955.80	11.1558	0.0015	21766
1956.35	10.9292	0.0017	21793
1956.90	11.3040	0.0016	21830
1957.45	12.0287	0.0012	21874
1958.00	10.4942	0.0015	21916
1958.55	11.1284	0.0013	21945
1959.10	10.8473	0.0011	21978
1959.65	12.4839	0.0016	22010
1960.20	11.5171	0.0017	22069
1960.75	11.0450	0.0013	22109
1961.30	11.1670	0.0011	22143
1961.85	11.4084	0.0012	22178
1962.40	9.9704	0.0009	22213
1962.95	9.8377	0.0015	22249
1963.50	10.0527	0.0014	22293
1964.05	9.2184	0.0012	22344
1964.60	10.1178	0.0017	22372
1965.15	9.6889	0.0020	22404
1965.70	9.7984	0.0016	22438
1966.25	9.3130	0.0023	22472
1966.80	9.9740	0.0021	22500
1967.35	9.9835	0.0024	22528
1967.90	9.9217	0.0024	22555
1968.45	10.4919	0.0020	22581
1969.00	10.3354	0.0015	22610
1969.55	10.1361	0.0022	22641
1970.10	9.3097	0.0020	22671
1970.65	9.6355	0.0021	22692
1971.20	9.3413	0.0019	22720
1971.75	8.4688	0.0020	22751
1972.30	9.2693	0.0017	22772
1972.85	8.9251	0.0823	22814
1973.40	10.2091	0.0014	22848
1973.95	9.7670	0.0017	22878
1974.50	9.7746	0.0013	22901
1975.05	12.0081	0.0012	22925
1975.60	11.4628	0.0016	22961
1976.15	11.4516	0.0015	22994
1976.70	11.3916	0.0016	23027
1977.25	10.5934	0.0021	23054
1977.80	10.3180	0.0021	23080
1978.35	9.9456	0.0017	23109
1978.90	10.3506	0.0014	23130
1979.45	10.7877	0.0014	23151
1980.00	11.0370	0.0014	23176
1980.55	11.5620	0.0012	23204
1981.10	11.2503	0.0010	23235
1981.65	11.0870	0.0012	23268
1982.20	11.6546	0.0016	23295
1982.75	11.4534	0.0030	23327
1983.30	10.8682	0.0028	23360
1983.85	11.0948	0.0024	23389
1984.40	11.9674	0.0016	23424
1984.95	11.6874	0.0020	23448
1985.50	11.5746	0.0017	23476
1986.05	10.2881	0.0019	23511
1986.60	11.5053	0.0016	23538
1987.15	11.4685	0.0017	23578
1987.70	10.9771	0.0012	23614
1988.25	10.3145	0.0013	23655
1988.80	11.1489	0.0011	23693
1989.35	11.4343	0.0014	23744
1989.90	10.9182	0.0013	23774
1990.45	11.1561	0.0013	23814
1991.00	10.5512	0.0027	23846
1991.55	12.0119	0.0022	23873
1992.10	11.4956	0.0023	23908
1992.65	11.3212	0.0020	23938
1993.20	11.6794	0.0017	23968
1993.75	11.5195	0.0015	24000
1994.30	10.5008	0.0019	24029
1994.85	10.8504	0.0023	24055
1995.40	10.9303	0.0019	24088
1995.95	10.8188	0.0021	24118
1996.50	11.0923	0.0023	24142
1997.05	10.5372	0.0018	24168
1997.60	10.6377	0.0020	24196
1998.15	11.3091	0.0022	24229
1998.70	10.5825	0.0022	24256
1999.25	10.8765	0.0019	24280
1999.80	10.8240	0.0030	24308
2000.35	11.5178	0.0023	24347
2000.90	10.2990	0.2364	24382
2001.45	10.0240	0.0024	24411
2002.00	9.6006	0.0024	24439
2002.55	9.5367	0.0023	24475
2003.10	8.9326	0.0019	24507
2003.65	7.8055	0.0019	24539
2004.20	7.6487	0.0019	24563
2004.75	8.0303	0.0019	24589
2005.30	8.6324	0.0016	24632
2005.85	8.9828	0.0020	24662
2006.40	8.8842	0.0018	24692
2006.95	8.7352	0.0015	24723
2007.50	9.4533	0.0018	24755
2008.05	9.9932	0.0022	24784
2008.60	10.5744	0.0019	24810
2009.15	9.5131	0.0028	24853
2009.70	10.0798	0.0029	24878
2010.25	11.1290	0.0023	24905
2010.80	10.2126	0.0020	24942
2011.35	9.5888	0.0024	24977
2011.90	9.7153	0.0021	25002
2012.45	10.4548	0.0015	25026
2013.00	9.4021	0.0016	25052
2013.55	9.5177	0.0020	25078
2014.10	9.7822	0.0020	25114
2014.65	10.4184	0.0018	25152
2015.20	9.8896	0.0033	25178
2015.75	9.7680	0.0028	25212
2016.30	9.7138	0.0026	25249
2016.85	9.9906	0.0023	25284
2017.40	10.4635	0.0025	25307
2017.95	9.7979	0.0031	25337
2018.50	9.8103	0.0204	25358
2019.05	10.2344	0.0075	25374
2019.60	9.1969	0.0038	25395
2020.15	9.3705	0.0222	25414
2020.70	9.2646	0.0042	25431
2021.25	10.3780	0.0057	25449
2021.80	10.4385	0.0144	25469
2022.35	9.9656	0.0098	25488
2022.90	12.3732	0.5887	25508
2023.45	10.2803	0.0066	25524
2024.00	10.5286	0.0400	25540
2024.55	11.3319	0.1349	25555
2025.10	9.7583	0.0064	25571
2025.65	10.8840	0.0025	25595
2026.20	10.4578	0.0015	25624
2026.75	9.9861	0.0016	25655
2027.30	9.4810	0.0016	25688
2027.85	10.1360	0.0022	25714
2028.40	10.3653	0.0021	25748
2028.95	10.1382	0.0016	25779
2029.50	10.0770	0.0026	25820
2030.05	10.9943	0.0024	25855
2030.60	10.9911	0.0016	25902
2031.15	11.3197	0.0019	25929
2031.70	10.8592	0.0017	25966
2032.25	10.6269	0.0016	26000
2032.80	10.3560	0.0013	26035
2033.35	10.2133	0.0015	26062
2033.90	11.0858	0.0018	26092
2034.45	10.6180	0.0014	26127
2035.00	9.8833	0.0022	26165
2035.55	9.4987	0.0017	26203
2036.10	9.4798	0.0023	26241
2036.65	11.2963	0.0020	26271
2037.20	10.5327	0.0016	26305
2037.75	9.7187	0.0022	26339
2038.30	9.3816	0.0023	26359
2038.85	10.1418	0.0028	26379
2039.40	9.3648	0.0032	26403
2039.95	9.0143	0.0038	26421
2040.50	9.0491	0.0030	26439
2041.05	9.5126	0.0033	26459
2041.60	9.1997	0.0033	26477
2042.15	8.8484	0.0028	26498
2042.70	8.8640	0.0039	26515
2043.25	13.1889	0.9236	26532
2043.80	8.2708	0.0047	26551
2044.35	7.9121	0.0039	26571
2044.90	7.8111	0.0030	26589
2045.45	8.7593	0.0020	26607
2046.00	9.2832	0.0017	26627
2046.55	9.5708	0.0015	26656
2047.10	8.5394	0.0015	26694
2047.65	9.8855	0.0019	26728
2048.20	10.6914	0.0019	26766
2048.75	10.2590	0.0019	26797
2049.30	10.7878	0.0025	26826
2049.85	10.6128	0.0020	26865
2050.40	9.6643	0.0023	26898
2050.95	9.6338	0.0026	26929
2051.50	9.8153	0.0020	26954
2052.05	9.3719	0.0023	26998
2052.60	9.5961	0.0020	27034
2053.15	10.5117	0.0025	27067
2053.70	9.8633	0.0023	27116
2054.25	9.6776	0.0021	27151
2054.80	10.5618	0.0019	27186
2055.35	10.7968	0.0016	27227
2055.90	11.2229	0.0705	27255
2056.45	10.3220	0.0019	27303
2057.00	11.4163	0.0016	27344
2057.55	11.2286	0.0015	27389
2058.10	10.6049	0.0018	27439
2058.65	10.5813	0.0017	27473
2059.20	11.8689	0.0017	27515
2059.75	11.0163	0.0014	27574
2060.30	11.2058	0.0014	27608
2060.85	10.2055	0.0018	27653
2061.40	9.9300	0.0020	27683
2061.95	9.5201	0.0021	27722
2062.50	9.8510	0.0018	27757
2063.05	10.3614	0.0015	27798
2063.60	9.8688	0.0018	27851
2064.15	9.7048	0.0017	27895
2064.70	9.7049	0.0014	27932
2065.25	9.6303	0.0018	27968
2065.80	9.8639	0.0018	28009
2066.35	9.7978	0.0016	28043
2066.90	10.3436	0.0012	28088
2067.45	10.6403	0.0014	28128
2068.00	10.1671	0.0030	28162
2068.55	9.8979	0.0019	28191
2069.10	10.1435	0.0018	28219
2069.65	9.6050	0.0024	28248
2070.20	9.7543	0.0017	28274
2070.75	9.9648	0.0014	28311
2071.30	10.2270	0.0020	28355
2071.85	9.5268	0.0015	28387
2072.40	9.7894	0.0011	28426
2072.95	9.5570	0.0023	28468
2073.50	9.3919	0.0021	28512
2074.05	9.9298	0.0013	28555
2074.60	8.7237	0.0012	28593
2075.15	9.1234	0.0013	28625
2075.70	9.1976	0.0014	28667
2076.25	11.2226	0.0009	28710
2076.80	10.5269	0.0009	28745
2077.35	11.0161	0.0008	28775
2077.90	10.9153	0.0009	28820
2078.45	11.9805	0.0010	28858
2079.00	11.9219	0.0010	28903
2079.55	11.4195	0.0013	28938
2080.10	12.6310	0.0019	28976
2080.65	12.3132	0.0011	29016
2081.20	11.4625	0.0010	29060
2081.75	11.1846	0.0010	29107
2082.30	11.6562	0.0016	29151
2082.85	10.7049	0.0017	29201
2083.40	9.2826	0.0019	29239
2083.95	9.0662	0.0011	29278
2084.50	8.7401	0.0012	29319
2085.05	9.6049	0.0010	29348
2085.60	9.1843	0.0012	29391
2086.15	9.0179	0.0013	29426
2086.70	8.6384	0.0012	29464
2087.25	9.1954	0.0021	29495
2087.80	9.6327	0.0549	29526
2088.35	8.3383	0.0025	29558
2088.90	8.2529	0.0020	29586
2089.45	8.5112	0.0027	29618
2090.00	9.0769	0.0020	29649
2090.55	8.7330	0.0021	29674
2091.10	8.5078	0.0025	29696
2091.65	9.4613	0.0464	29720
2092.20	10.3765	0.0947	29744
2092.75	8.6868	0.0053	29767
2093.30	9.3712	0.0030	29789
2093.85	10.7607	0.1064	29811
2094.40	10.9976	0.2653	29834
2094.95	9.1534	0.0351	29858
2095.50	9.5139	0.0031	29879
2096.05	11.5009	0.1232	29903
2096.60	11.6779	0.1380	29925
2097.15	10.3234	0.0227	29947
2097.70	11.4498	0.0826	29969
2098.25	11.6699	0.0817	29989
2098.80	10.5269	0.0011	30013
2099.35	10.9338	0.0010	30047
2099.90	10.5796	0.0008	30087
2100.45	11.6846	0.0008	30120
2101.00	11.1444	0.0008	30154
2101.55	10.5305	0.0011	30196
2102.10	10.4090	0.0013	30232
2102.65	11.2667	0.0009	30272
2103.20	10.9262	0.0026	30310
2103.75	10.9608	0.0024	30346
2104.30	10.4971	0.0020	30391
2104.85	10.9822	0.0018	30434
2105.40	10.3228	0.0019	30476
2105.95	10.5883	0.0015	30515
2106.50	10.2847	0.0015	30573
2107.05	9.8626	0.0015	30623
2107.60	9.9529	0.0010	30664
2108.15	8.9176	0.0018	30696
2108.70	9.1863	0.0026	30734
2109.25	8.7343	0.0017	30779
2109.80	9.7615	0.0020	30813
2110.35	8.5334	0.0033	30849
2110.90	8.6003	0.0036	30881
2111.45	8.7235	0.0031	30908
2112.00	10.0556	0.0333	30934
2112.55	10.3437	0.0596	30960
2113.10	10.2051	0.0475	30986
2113.65	9.2780	0.0073	31010
2114.20	10.1479	0.0062	31033
2114.75	9.9526	0.0051	31058
2115.30	10.1947	0.0444	31083
2115.85	11.1554	0.1906	31109
2116.40	9.8946	0.0170	31133
2116.95	11.8796	0.4879	31155
2117.50	8.0581	0.0050	31174
2118.05	7.9303	0.0040	31194
2118.60	9.0804	0.0028	31218
2119.15	9.4268	0.0022	31250
2119.70	8.9268	0.0018	31292
2120.25	8.7279	0.0019	31329
2120.80	9.1723	0.0018	31368
2121.35	9.8104	0.0013	31410
2121.90	9.2331	0.0012	31447
2122.45	9.7945	0.0009	31480
2123.00	8.9373	0.0013	31518
2123.55	9.8618	0.0011	31548
2124.10	9.5094	0.0011	31585
2124.65	9.1170	0.0021	31628
2125.20	8.6727	0.0826	31668
2125.75	9.5751	0.0019	31703
2126.30	8.5525	0.0018	31740
2126.85	8.3430	0.0016	31777
2127.40	7.9095	0.0022	31819
2127.95	10.5072	0.0023	31858
2128.50	11.1231	0.0026	31893
2129.05	10.9636	0.0023	31933
2129.60	11.4244	0.0021	31965
2130.15	11.2218	0.0021	32009
2130.70	11.1215	0.0018	32043
2131.25	11.2928	0.0195	32085
2131.80	11.4037	0.0374	32123
2132.35	13.6530	0.3693	32150
2132.90	10.7442	0.0404	32180
2133.45	15.7623	0.9679	32204
2134.00	10.9719	0.0562	32231
2134.55	12.1928	0.1873	32258
2135.10	11.3153	0.0877	32287
2135.65	12.0958	0.2280	32316
2136.20	9.8364	0.0033	32348
2136.75	10.4466	0.0028	32378
2137.30	9.8902	0.0026	32405
2137.85	10.3819	0.0274	32431
2138.40	11.7651	0.2309	32458
2138.95	10.0513	0.0125	32481
2139.50	9.5716	0.0199	32503
2140.05	12.2190	0.2591	32528
2140.60	12.5239	0.4603	32552
2141.15	10.6413	0.0924	32575
2141.70	8.5757	0.0040	32595
2142.25	9.6102	0.0886	32620
2142.80	8.7083	0.0181	32641
2143.35	9.7555	0.0670	32665
2143.90	11.3327	0.1004	32688
2144.45	12.4567	0.1771	32713
2145.00	10.3043	0.0357	32737
2145.55	12.0756	0.2347	32758
2146.10	10.9394	0.0575	32779
2146.65	10.6665	0.0874	32805
2147.20	9.5156	0.0169	32825
2147.75	8.9303	0.0076	32846
2148.30	9.6832	0.0040	32870
2148.85	9.5884	0.0024	32896
2149.40	10.1267	0.0025	32925
2149.95	11.1677	0.0025	32967
2150.50	10.4112	0.0029	33013
2151.05	10.4326	0.0027	33051
2151.60	10.9580	0.0021	33086
2152.15	10.9493	0.0020	33127
2152.70	10.5417	0.0023	33165
2153.25	11.1943	0.0018	33204
2153.80	10.2618	0.0023	33246
2154.35	11.7281	0.0019	33288
2154.90	11.0377	0.0021	33335
2155.45	10.5410	0.0022	33404
2156.00	10.4096	0.0019	33447
2156.55	10.7268	0.0013	33489
2157.10	11.5302	0.0013	33525
2157.65	11.2617	0.0015	33563
2158.20	11.0073	0.0019	33606
2158.75	11.6838	0.0015	33644
2159.30	11.2293	0.0014	33695
2159.85	11.1936	0.0016	33737
2160.40	10.7446	0.0018	33784
2160.95	11.1040	0.0015	33826
2161.50	10.5709	0.0014	33862
2162.05	10.8292	0.0017	33904
2162.60	10.0810	0.0017	33943
2163.15	10.4068	0.0023	33977
2163.70	9.8784	0.0029	34009
2164.25	10.2397	0.0465	34036
2164.80	9.4217	0.0101	34069
2165.35	9.8449	0.0038	34094
2165.90	10.2625	0.0066	34119
2166.45	9.2322	0.0054	34148
2167.00	10.6481	0.2158	34174
2167.55	9.3019	0.0031	34202
2168.10	10.2919	0.0017	34237
2168.65	9.7179	0.0021	34270
2169.20	9.8166	0.0018	34306
2169.75	8.9696	0.0040	34333
2170.30	9.6507	0.0030	34361
2170.85	9.0987	0.0086	34396
2171.40	10.6219	0.1741	34426
2171.95	15.0532	0.8779	34455
2172.50	10.4293	0.1107	34485
2173.05	10.5565	0.1604	34512
2173.60	11.5015	0.3556	34540
2174.15	12.5888	0.5266	34564
2174.70	13.3382	0.6650	34591
2175.25	11.5457	0.2349	34618
2175.80	11.6806	0.3520	34642
2176.35	11.2962	0.2907	34671
2176.90	8.3163	0.0322	34692
2177.45	10.4040	0.1878	34719
2178.00	9.5107	0.0959	34746
2178.55	9.4209	0.0786	34772
2179.10	9.7964	0.1040	34799
2179.65	11.4616	0.4112	34825
2180.20	10.6738	0.2905	34852
2180.75	11.3235	0.3802	34876
2181.30	11.7666	0.1819	34902
2181.85	12.7282	0.2721	34926
2182.40	11.6754	0.1779	34950
2182.95	10.5109	0.0742	34973
2183.50	11.5499	0.1874	35001
2184.05	9.6849	0.0646	35026
2184.60	13.0102	0.5955	35050
2185.15	10.7555	0.4383	35074
2185.70	10.6089	0.2381	35099
2186.25	16.3097	1.0390	35126
2186.80	11.1097	0.1820	35151
2187.35	10.8887	0.1874	35181
2187.90	9.9987	0.0527	35204
2188.45	12.6715	0.1820	35226
2189.00	13.1821	0.2654	35251
2189.55	15.0577	0.5243	35274
2190.10	14.9251	0.4279	35296
2190.65	15.5903	0.4685	35321
2191.20	13.3984	0.2814	35345
2191.75	11.8215	0.0755	35369
2192.30	12.1989	0.1281	35393
2192.85	16.0404	0.7975	35416
2193.40	15.3948	0.7647	35441
2193.95	12.7720	0.2462	35465
2194.50	11.4479	0.1235	35490
2195.05	12.7047	0.2015	35512
2195.60	12.0614	0.1861	35536
2196.15	13.5793	0.5516	35558
2196.70	12.8598	0.2384	35582
2197.25	13.2086	0.3144	35603
2197.80	20.0914	1.6698	35625
2198.35	12.3145	0.3334	35648
2198.90	10.0525	0.0759	35668
2199.45	9.7261	0.0263	35692
2200.00	10.3451	0.0049	35716
2200.55	10.2617	0.0019	35749
2201.10	9.7681	0.0015	35787
2201.65	9.1871	0.0022	35822
2202.20	9.3004	0.0023	35859
2202.75	10.0480	0.0020	35898
2203.30	9.3278	0.0023	35937
2203.85	10.2690	0.0017	35984
2204.40	10.1042	0.0016	36027
2204.95	10.3102	0.0011	36068
2205.50	9.3988	0.0012	36125
2206.05	10.5710	0.0014	36163
2206.60	9.7221	0.0017	36224
2207.15	8.9106	0.0016	36277
2207.70	8.9544	0.0022	36327
2208.25	9.5791	0.0019	36377
2208.80	8.6231	0.0021	36427
2209.35	8.8675	0.0019	36478
2209.90	8.6675	0.0019	36520
2210.45	8.9483	0.0019	36567
2211.00	9.4112	0.0014	36615
2211.55	9.0833	0.0013	36664
2212.10	8.8682	0.0020	36724
2212.65	9.2014	0.0021	36770
2213.20	10.4567	0.0020	36816
2213.75	10.9014	0.0026	36861
2214.30	9.5003	0.0029	36924
2214.85	10.1557	0.0019	36982
2215.40	10.8651	0.0022	37033
2215.95	11.1646	0.0021	37095
2216.50	11.2096	0.0018	37141
2217.05	10.7638	0.0020	37182
2217.60	10.5780	0.0024	37230
2218.15	11.6234	0.0018	37274
2218.70	10.6990	0.0021	37322
2219.25	10.7968	0.0022	37370
2219.80	9.7880	0.0022	37419
2220.35	10.1944	0.0024	37461
2220.90	9.7373	0.0026	37499
2221.45	9.0789	0.0030	37532
2222.00	8.9014	0.0028	37568
2222.55	8.7180	0.0027	37600
2223.10	10.5613	0.0021	37625
2223.65	9.9438	0.0030	37663
2224.20	10.5986	0.0026	37706
2224.75	9.8885	0.0020	37756
2225.30	10.5331	0.0028	37793
2225.85	11.5578	0.0026	37832
2226.40	10.9064	0.0021	37876
2226.95	10.6714	0.0019	37916
2227.50	10.1988	0.0019	37960
2228.05	11.0536	0.0021	37999
2228.60	10.4794	0.0021	38042
2229.15	10.6649	0.0018	38093
2229.70	9.6061	0.0016	38151
2230.25	10.7805	0.0034	38186
2230.80	9.9368	0.0034	38241
2231.35	9.5667	0.0033	38292
2231.90	9.0866	0.0015	38336
2232.45	8.5819	0.0020	38370
2233.00	9.3366	0.0020	38411
2233.55	8.3780	0.0019	38450
2234.10	8.0643	0.0033	38488
2234.65	8.1340	0.0111	38521
2235.20	8.0747	0.0024	38552
2235.75	9.5695	0.0050	38581
2236.30	12.2449	0.8883	38613
2236.85	11.5443	0.0647	38645
2237.40	9.2454	0.0034	38678
2237.95	9.5546	0.0032	38710
2238.50	10.5662	0.0430	38740
2239.05	9.3501	0.0038	38773
2239.60	9.2485	0.0037	38804
2240.15	8.9778	0.0045	38831
2240.70	9.9601	0.0075	38859
2241.25	12.2792	0.2707	38887
2241.80	9.2366	0.0076	38915
2242.35	9.3323	0.0125	38940
2242.90	9.8217	0.0038	38966
2243.45	9.3663	0.0022	38997
2244.00	8.4093	0.0032	39036
2244.55	8.4384	0.0025	39074
2245.10	8.3773	0.0025	39118
2245.65	9.9433	0.0025	39163
2246.20	9.1226	0.0024	39220
2246.75	9.3415	0.0017	39262
2247.30	9.7286	0.0017	39315
2247.85	10.0238	0.0018	39359
2248.40	11.6078	0.0014	39420
2248.95	11.0376	0.0014	39479
2249.50	10.8280	0.0017	39523
2250.05	11.5746	0.0096	39574
2250.60	11.5690	0.0018	39637
2251.15	10.9628	0.0020	39691
2251.70	10.6075	0.0097	39730
2252.25	9.9211	0.0023	39778
2252.80	9.6509	0.0028	39812
2253.35	10.6556	0.0418	39843
2253.90	9.1077	0.0037	39880
2254.45	8.7719	0.0028	39918
2255.00	8.6558	0.0027	39955
2255.55	9.2819	0.0022	39994
2256.10	10.2442	0.0022	40034
2256.65	9.7937	0.0022	40066
2257.20	9.7930	0.0039	40105
2257.75	11.7727	0.2349	40140
2258.30	10.4133	0.0034	40178
2258.85	12.3451	0.2512	40208
2259.40	10.3495	0.0339	40239
2259.95	9.6862	0.0084	40268
2260.50	9.5893	0.0057	40300
2261.05	11.3082	0.1079	40331
2261.60	9.6839	0.0190	40361
2262.15	9.8317	0.0263	40391
2262.70	9.2166	0.0146	40422
2263.25	9.6060	0.0035	40453
2263.80	10.0794	0.0045	40485
2264.35	10.2650	0.0255	40513
2264.90	10.1392	0.0469	40539
2265.45	10.2404	0.1524	40566
2266.00	10.7814	0.0647	40592
2266.55	9.0796	0.0035	40623
2267.10	9.3808	0.0169	40651
2267.65	9.3304	0.0123	40679
2268.20	10.1938	0.0219	40708
2268.75	10.8436	0.0301	40739
2269.30	9.9696	0.0348	40772
2269.85	11.5005	0.2485	40800
2270.40	11.4014	0.0879	40830
2270.95	10.1718	0.0012	40869
2271.50	9.6439	0.0009	40916
2272.05	9.8814	0.0104	40970
2272.60	9.7773	0.0013	41032
2273.15	10.0919	0.0010	41098
2273.70	10.7405	0.0035	41154
2274.25	10.4081	0.0031	41214
2274.80	10.6677	0.0021	41274
2275.35	10.3289	0.0020	41332
2275.90	9.8768	0.0018	41381
2276.45	9.5157	0.0019	41427
2277.00	9.0168	0.0017	41483
2277.55	8.5910	0.0018	41537
2278.10	9.5323	0.0016	41587
2278.65	9.6229	0.0021	41647
2279.20	9.2190	0.0021	41699
2279.75	9.1971	0.0015	41746
2280.30	9.0491	0.0016	41798
2280.85	10.3541	0.0092	41845
2281.40	12.2110	0.2991	41885
2281.95	14.0783	0.5779	41921
2282.50	15.8794	0.8413	41956
2283.05	11.0685	0.0552	41989
2283.60	12.1529	0.2239	42020
2284.15	10.1858	0.0014	42055
2284.70	10.2691	0.0009	42095
2285.25	10.0735	0.0011	42133
2285.80	10.6745	0.0012	42175
2286.35	9.9326	0.0219	42214
2286.90	11.4147	0.2334	42252
2287.45	9.0251	0.0015	42291
2288.00	10.0049	0.0179	42329
2288.55	11.1954	0.0268	42366
2289.10	11.1399	0.0762	42399
2289.65	10.1195	0.0022	42438
2290.20	10.3375	0.0027	42479
2290.75	11.6206	0.0247	42519
2291.30	10.1608	0.0024	42558
2291.85	10.2650	0.0047	42591
2292.40	10.1387	0.0034	42626
2292.95	10.4067	0.0013	42662
2293.50	10.1492	0.0036	42697
2294.05	9.1560	0.0050	42735
2296.25	13.0656	0.3499	42882
2296.80	9.8852	0.0293	42917
2297.35	10.3445	0.0542	42949
2297.90	13.2644	0.2792	42980
2298.45	17.9062	1.0980	43011
2299.00	15.0709	0.8998	43042
2299.55	11.7125	0.2296	43074
2300.10	11.0885	0.0600	43105
2300.65	12.7961	0.2905	43134
2301.20	16.2495	0.9800	43166
2301.75	13.6008	0.3704	43195
2302.30	13.5436	0.3922	43227
2302.85	12.5357	0.1774	43261
2303.40	15.1820	0.4209	43291
2303.95	11.6953	0.1049	43325
2304.50	14.3199	0.4981	43356
2305.05	11.0109	0.0410	43385
2305.60	13.1173	0.2209	43415
2306.15	12.3067	0.1728	43445
2306.70	16.0897	0.7755	43475
2307.25	14.7009	0.6348	43507
2307.80	11.9043	0.1237	43537
2308.35	11.4075	0.1358	43566
2308.90	14.8128	0.5004	43593
2309.45	11.2164	0.0880	43622
2310.00	12.7755	0.3291	43653
2310.55	13.8025	0.3851	43680
2311.10	13.6668	0.4721	43711
2311.65	12.8236	0.1926	43738
2312.20	10.4662	0.0124	43767
2312.75	10.2721	0.0158	43796
2313.30	13.4798	0.3184	43827
2313.85	11.9615	0.1500	43854
2314.40	11.1144	0.1063	43882
2314.95	11.5515	0.1171	43911
2315.50	12.8985	0.3494	43940
2316.05	14.3750	0.4786	43971
2316.60	13.9207	0.4788	44000
2317.15	11.5965	0.1071	44026
2317.70	14.3782	0.5541	44055
2318.25	12.6587	0.3802	44084
2318.80	11.2031	0.0760	44116
2319.35	11.0460	0.0467	44145
2319.90	12.2145	0.2545	44174
2320.45	14.1753	0.7426	44202
2321.00	9.9652	0.0279	44228
2321.55	12.6135	0.3340	44256
2322.10	13.1042	0.4286	44283
2322.65	11.8045	0.1889	44309
2323.20	10.2560	0.0605	44336
2323.75	9.7110	0.0020	44362
2324.30	11.1814	0.0010	44392
2324.85	11.0394	0.0009	44442
2325.40	11.0638	0.0006	44494
2325.95	11.6301	0.0007	44545
2326.50	11.4402	0.0006	44604
2327.05	11.0512	0.0006	44661
2327.60	10.8176	0.0011	44717
2328.15	11.1358	0.0007	44769
2328.70	11.0655	0.0005	44826
2329.25	10.5731	0.0005	44876
2329.80	10.8125	0.0006	44921
2330.35	11.1188	0.0006	44973
2330.90	10.7174	0.0022	45024
2331.45	11.8034	0.0019	45071
2332.00	10.9002	0.0017	45139
2332.55	11.5444	0.0013	45184
2333.10	11.2931	0.0015	45247
2333.65	11.0755	0.0011	45302
2334.20	11.9387	0.0015	45358
2334.75	11.6707	0.0014	45421
2335.30	11.7007	0.0007	45489
2335.85	11.8260	0.0007	45543
2336.40	11.2905	0.0012	45604
2336.95	11.2908	0.0013	45662
2337.50	10.3066	0.0014	45722
2338.05	10.1587	0.0019	45773
2338.60	10.7028	0.0020	45823
2339.15	10.3419	0.0019	45881
2339.70	9.3367	0.0020	45926
2340.25	9.5937	0.0016	45965
2340.80	9.8112	0.0020	46004
2341.35	10.4561	0.0018	46048
2341.90	9.7731	0.0015	46105
2342.45	9.9375	0.0024	46146
2343.00	9.9695	0.0022	46188
2343.55	9.6513	0.0025	46234
2344.10	9.9847	0.0201	46272
2344.65	9.5608	0.0085	46308
2345.20	11.9968	0.2527	46349
2345.75	9.9029	0.0462	46384
2346.30	9.3694	0.0026	46421
2346.85	12.5875	0.4463	46457
2347.40	10.6847	0.0190	46496
2347.95	9.5092	0.0043	46544
2348.50	9.4254	0.0027	46581
2349.05	10.6039	0.1191	46617
2349.60	9.4901	0.0127	46652
2350.15	9.3220	0.0024	46686
2350.70	10.3610	0.0022	46722
2351.25	10.8567	0.0013	46773
2351.80	10.5162	0.0010	46837
2352.35	10.2336	0.0012	46887
2352.90	10.4272	0.0010	46934
2353.45	10.4237	0.0013	46985
2354.00	9.7451	0.0020	47032
2354.55	9.6245	0.0016	47075
2355.10	9.8082	0.0020	47124
2355.65	9.8363	0.0022	47162
2356.20	9.6755	0.0019	47204
2356.75	9.5454	0.0019	47246
2357.30	9.7631	0.0021	47288
2357.85	10.2404	0.0015	47331
2358.40	10.0949	0.0022	47383
2358.95	9.6782	0.0017	47425
2359.50	9.6118	0.0016	47477
2360.05	9.8184	0.0022	47516
2360.60	10.0543	0.0020	47561
2361.15	10.1401	0.0076	47603
2361.70	10.1306	0.0025	47651
2362.25	9.9070	0.0020	47699
2362.80	9.8691	0.0031	47744
2363.35	10.0978	0.0018	47787
2363.90	10.5118	0.0019	47832
2364.45	9.9090	0.0017	47878
2365.00	9.8509	0.0018	47923
2365.55	11.2616	0.1281	47964
2366.10	10.4974	0.0193	48005
2366.65	9.6190	0.0039	48050
2367.20	9.9370	0.0016	48091
2367.75	9.8961	0.0040	48136
2368.30	9.7374	0.0045	48181
2368.85	9.6611	0.0021	48223
2369.40	9.2752	0.0020	48268
2369.95	9.5483	0.0018	48316
2370.50	10.7198	0.0769	48361
2371.05	9.8468	0.0089	48401
2371.60	9.6665	0.0037	48448
2372.15	9.4337	0.0027	48494
2372.70	9.8585	0.0032	48535
2373.25	12.3560	0.3394	48582
2373.80	10.7481	0.1410	48625
2374.35	10.0403	0.0133	48672
2374.90	9.8479	0.0034	48714
2375.45	10.5449	0.0399	48758
2376.00	10.0211	0.0166	48806
2376.55	10.4894	0.0294	48850
2377.10	9.7778	0.0033	48889
2377.65	9.7560	0.0033	48931
2378.20	9.8691	0.0132	48973
2378.75	9.7494	0.0034	49015
2379.30	9.7035	0.0022	49060
2379.85	10.7527	0.0444	49109
2380.40	9.6996	0.0093	49156
2380.95	13.2027	0.4778	49200
2381.50	13.1056	0.3792	49240
2382.05	14.5348	0.5857	49280
2382.60	14.0071	0.4882	49318
2383.15	11.9242	0.3047	49354
2383.70	13.8202	0.3885	49394
2384.25	12.8237	0.2935	49433
2384.80	12.3418	0.1963	49475
2385.35	12.4608	0.2731	49515
2385.90	14.6248	0.5923	49553
2386.45	15.0494	0.6074	49591
2387.00	11.6178	0.1139	49635
2387.55	12.4523	0.2222	49678
2388.10	12.1484	0.2115	49716
2388.65	12.1490	0.1742	49753
2389.20	11.5051	0.1452	49792
2389.75	12.1499	0.2452	49829
2390.30	19.9409	1.7259	49868
2390.85	14.5740	0.7170	49909
2391.40	12.7768	0.2024	49949
2391.95	11.1014	0.0920	49987
2392.50	10.6907	0.0886	50025
2393.05	12.7596	0.3218	50068
2393.60	11.2795	0.0951	50103
2394.15	12.8186	0.2786	50142
2394.70	12.9186	0.3202	50177
2395.25	14.1323	0.4933	50214
2395.80	11.8238	0.1855	50252
2396.35	12.8805	0.3842	50293
2396.90	14.5059	0.5569	50331
2397.45	12.9946	0.3394	50370
2398.00	11.1860	0.1232	50412
2398.55	14.3534	0.6350	50450
2399.10	15.4394	0.7416	50487
2399.65	13.5311	0.4286	50525
2400.20	12.5955	0.3059	50563
2400.75	13.5125	0.4611	50600
2401.30	13.8721	0.4052	50638
2401.85	12.2207	0.2706	50675
2402.40	16.2765	0.9251	50713
2402.95	11.8710	0.1902	50753
2403.50	15.1868	0.7481	50792
2404.05	14.2035	0.4245	50832
2404.60	15.2087	0.5513	50868
2405.15	16.4010	0.7390	50907
2405.70	13.3798	0.4452	50944
2406.25	12.8836	0.3484	50983
2406.80	13.8586	0.5286	51022
2407.35	14.9648	0.6481	51058
2407.90	12.9635	0.3693	51098
2408.45	14.7183	0.6621	51137
2409.00	15.2159	0.8185	51173
2409.55	13.3928	0.4965	51209
2410.10	12.7304	0.3938	51247
2410.65	12.1170	0.2499	51284
2411.20	12.2399	0.3656	51322
2411.75	13.5867	0.4561	51359
2412.30	10.0381	0.0195	51397
2412.85	11.9557	0.1367	51436
2413.40	10.7503	0.1053	51473
2413.95	12.3372	0.2847	51508
2414.50	13.4686	0.5104	51548
2415.05	13.4007	0.4328	51586
2415.60	13.2063	0.4823	51618
2416.15	12.8024	0.4029	51652
2416.70	9.7649	0.0056	51690
2417.25	10.2212	0.0030	51732
2417.80	10.6263	0.1528	51785
2418.35	10.9404	0.1139	51820
2418.90	12.2220	0.2318	51856
2419.45	9.8724	0.0117	51896
2420.00	13.5450	0.6006	51936
2420.55	10.2085	0.0081	51969
2421.10	10.6250	0.0013	52016
2421.65	10.5652	0.0012	52095
2422.20	10.1858	0.0011	52158
2422.75	10.2645	0.0007	52228
2423.30	10.3806	0.0011	52291
2423.85	10.4000	0.0013	52369
2424.40	10.8381	0.0007	52437
2424.95	10.6820	0.0009	52502
2425.50	10.5232	0.0011	52560
2426.05	10.6283	0.0011	52630
2426.60	9.7280	0.0082	52690
2427.15	9.3243	0.0075	52731
2427.70	9.8012	0.0018	52767
2428.25	10.4202	0.0012	52821
2428.80	10.3697	0.0008	52891
2429.35	10.5873	0.0007	52968
2429.90	10.9201	0.0008	53032
2430.45	11.0092	0.0007	53099
2431.00	13.8435	0.0026	53162
2431.55	10.5771	0.0554	53211
2432.10	10.5760	0.0536	53250
2432.65	10.2066	0.0168	53291
2433.20	9.4772	0.0054	53334
2433.75	9.9481	0.0242	53380
2434.30	10.2523	0.0419	53421
2434.85	9.6309	0.0814	53460
2435.40	9.7717	0.0752	53497
2437.60	10.6412	0.0010	53749
2438.15	10.7086	0.0013	53819
2438.70	10.9873	0.0007	53876
2439.25	10.7832	0.0011	53937
2439.80	11.1065	0.0011	54003
2440.35	10.6925	0.0011	54087
2440.90	10.2763	0.0020	54146
2441.45	10.0771	0.0023	54206
2442.00	9.9586	0.0023	54254
2442.55	9.4489	0.0023	54307
2443.10	9.6092	0.0028	54355
2443.65	9.2912	0.0030	54399
2444.20	9.6025	0.0028	54447
2444.75	9.6648	0.0017	54494
2445.30	9.8371	0.0017	54541
2445.85	9.2023	0.0023	54594
2446.40	9.6017	0.0017	54643
2446.95	9.7721	0.0023	54692
2447.50	10.2468	0.0273	54738
2448.05	9.7945	0.0064	54784
2448.60	9.8061	0.0620	54829
2449.15	11.0210	0.1349	54876
2449.70	11.1678	0.1600	54920
2450.25	9.4599	0.0029	54968
2450.80	9.5801	0.0042	55017
2451.35	9.6525	0.0034	55063
2451.90	9.6863	0.0022	55107
2452.45	9.4562	0.0036	55156
2453.00	10.7474	0.1250	55206
2453.55	9.5930	0.0048	55255
2454.10	9.9992	0.0245	55301
2454.65	10.8723	0.1234	55344
2455.20	9.5404	0.0257	55386
2455.75	9.8881	0.0413	55429
2456.30	10.5637	0.1178	55469
2456.85	11.2732	0.1728	55516
2457.40	12.6158	0.3222	55555
2457.95	13.2417	0.4650	55596
2458.50	9.4943	0.0047	55638
2459.05	10.7260	0.1811	55685
2459.60	13.8322	0.7797	55725
2460.15	9.8335	0.0017	55765
2460.70	9.8843	0.0009	55822
2461.25	10.8293	0.1124	55878
2461.80	10.5227	0.0581	55927
2462.35	10.3814	0.0533	55967
2462.90	10.3375	0.0007	56008
2463.45	9.9435	0.0005	56073
2464.00	10.4994	0.0004	56140
2464.55	10.3122	0.0003	56207
2465.10	9.8693	0.0005	56278
2465.65	10.1992	0.0538	56330
2466.20	14.0150	0.4355	56380
2466.75	14.6035	0.5006	56419
2467.30	14.4950	0.6100	56466
2467.85	10.4973	0.0560	56507
2468.40	11.9934	0.1513	56554
2468.95	12.8389	0.4580	56609
2469.50	11.6501	0.1760	56651
2470.05	11.9314	0.2084	56693
2470.60	10.6023	0.0719	56732
2471.15	9.7592	0.0191	56772
2471.70	9.3773	0.0021	56810
2472.25	10.2911	0.0005	56852
2472.80	10.2599	0.0003	56914
2473.35	10.3501	0.0003	56978
2473.90	9.7689	0.0005	57052
2474.45	11.8982	0.3505	57105
2475.00	10.5040	0.1410	57144
2475.55	9.8242	0.0015	57182
2476.10	10.4360	0.0004	57231
2476.65	10.5253	0.0003	57292
2477.20	10.2100	0.0003	57368
2477.75	10.6488	0.0003	57438
2478.30	10.6872	0.0002	57519
2478.85	10.9501	0.0001	57589
2479.40	10.3948	0.0001	57685
2479.95	10.6288	0.0002	57766
2480.50	10.6920	0.0002	57843
2481.05	11.0248	0.0002	57933
2481.60	10.3492	0.0003	58014
2482.15	10.5009	0.0002	58079
2482.70	10.7388	0.0002	58153
2483.25	10.5154	0.0003	58219
2483.80	10.8818	0.0002	58289
2484.35	10.4590	0.0002	58361
2484.90	10.5207	0.0003	58434
2485.45	10.7916	0.0004	58516
2486.00	10.7701	0.0003	58584
2486.55	10.5142	0.0003	58641
2487.10	10.6376	0.0003	58715
2487.65	10.4775	0.0002	58793
2488.20	10.4227	0.0002	58857
2488.75	10.9318	0.0002	58938
2489.30	10.7882	0.0002	59024
2489.85	10.9684	0.0003	59103
2490.40	10.5208	0.0003	59189
2490.95	10.4912	0.0003	59279
2491.50	10.5602	0.0003	59367
2492.05	10.7170	0.0003	59462
2492.60	10.7672	0.0002	59558
2493.15	10.6439	0.0002	59652
2493.70	10.6328	0.0002	59734
2494.25	10.9818	0.0002	59811
2494.80	11.0787	0.0002	59888
2495.35	10.5861	0.0002	59997
2495.90	10.9656	0.0002	60083
2496.45	10.5814	0.0002	60185
2497.00	10.9630	0.0002	60281
2497.55	10.8555	0.0002	60385
2498.10	10.9285	0.0002	60476
2498.65	10.8061	0.0003	60570
2499.20	11.0504	0.0002	60666
2499.75	10.5430	0.0002	60780
2500.30	10.4413	0.0003	60863
2500.85	10.0533	0.0003	60951
2501.40	9.9934	0.0004	61027
2501.95	9.9474	0.0005	61104
2502.50	10.2237	0.0004	61182
2503.05	10.5613	0.0003	61262
2503.60	10.1024	0.0004	61347
2504.15	10.1993	0.0005	61419
2504.70	9.4643	0.0006	61494
2505.25	9.1339	0.0006	61544
2505.80	9.1646	0.0007	61594
2506.35	9.2394	0.0008	61645
2506.90	9.4662	0.0007	61701
2507.45	10.4140	0.0004	61757
2508.00	10.5567	0.0003	61841
2508.55	10.3846	0.0002	61948
2509.10	10.2168	0.0003	62042
2509.65	10.5717	0.0006	62151
2510.20	10.5924	0.0006	62255
2510.75	10.5522	0.0004	62357
2511.30	10.3486	0.0004	62456
2511.85	10.3820	0.0004	62544
2512.40	10.1484	0.0004	62636
2512.95	10.4177	0.0004	62711
2513.50	10.6606	0.0002	62804
2514.05	10.7169	0.0002	62908
2514.60	10.4905	0.0005	63019
2515.15	10.7742	0.0004	63136
2515.70	10.5476	0.0003	63263
2516.25	10.7377	0.0014	63361
2516.80	10.9800	0.0013	63479
2517.35	10.2785	0.0007	63586
2517.90	9.9390	0.0003	63684
2518.45	9.9760	0.0002	63782
2519.00	10.0347	0.0002	63880
2519.55	10.0827	0.0003	63975
2520.10	10.2246	0.0003	64080
2520.65	9.8861	0.0004	64182
2521.20	10.0457	0.0003	64264
2521.75	9.7975	0.0003	64373
2522.30	9.9191	0.0003	64466
2522.85	10.1026	0.0003	64568
2523.40	9.6426	0.0003	64674
2523.95	10.0937	0.0003	64778
2524.50	10.1521	0.0003	64869
2525.05	10.1706	0.0003	64978
2525.60	10.1784	0.0003	65093
2526.15	10.0084	0.0003	65208
2526.70	9.9317	0.0003	65320
2527.25	10.1556	0.0003	65417
2527.80	10.4627	0.0003	65523
2528.35	10.2845	0.0003	65622
2528.90	10.6073	0.0003	65735
2529.45	10.3598	0.0003	65846
2530.00	10.4494	0.0003	65973
2530.55	10.4778	0.0004	66076
2531.10	10.1134	0.0004	66179
2531.65	10.1495	0.0003	66273
2532.20	10.1920	0.0004	66370
2532.75	10.3451	0.0004	66468
2533.30	10.1673	0.0003	66585
2533.85	9.8339	0.0005	66691
2534.40	9.2859	0.0008	66788
2534.95	8.9371	0.0009	66869
2535.50	9.1850	0.0009	66934
2536.05	9.5170	0.0008	66990
2536.60	10.0004	0.0004	67060
2537.15	10.1350	0.0003	67173
2537.70	10.2506	0.0003	67285
2538.25	10.5429	0.0002	67402
2538.80	10.2281	0.0005	67542
2539.35	9.7867	0.0006	67650
2539.90	9.3054	0.0007	67759
2540.45	9.5914	0.0008	67845
2541.00	9.3636	0.0009	67927
2541.55	9.5400	0.0010	68016
2542.10	9.3360	0.0012	68085
2542.65	8.9985	0.0009	68162
2543.20	9.0023	0.0077	68237
2543.75	9.8029	0.0505	68299
2544.30	9.0862	0.0029	68361
2544.85	9.4339	0.0239	68421
2545.40	9.2538	0.0070	68483
2545.95	9.1163	0.0028	68543
2546.50	10.0265	0.0468	68604
2547.05	10.6090	0.1002	68665
2547.60	9.0152	0.0020	68722
2548.15	8.9177	0.0025	68785
2548.70	9.8276	0.0621	68841
2549.25	15.4551	0.8716	68900
2549.80	10.2380	0.1638	68958
2550.35	9.5705	0.0385	69005
2550.90	9.3665	0.0140	69065
2551.45	11.6963	0.2709	69120
2552.00	9.4517	0.0432	69178
2552.55	10.1563	0.1327	69232
2553.10	9.7775	0.0449	69282
2553.65	11.9796	0.2808	69336
2554.20	11.7885	0.2779	69388
2554.75	11.5391	0.3145	69441
2555.30	11.5534	0.2601	69491
2555.85	10.7972	0.1853	69540
2556.40	9.3691	0.0248	69592
2556.95	8.7485	0.0038	69640
2557.50	9.0820	0.0014	69689
2558.05	9.7260	0.0005	69747
2558.60	10.0190	0.0006	69873
2559.15	9.7844	0.0005	70026
2559.70	9.7064	0.0004	70168
2560.25	9.7065	0.0004	70327
2560.80	9.8617	0.0004	70474
2561.35	9.8180	0.0003	70636
2561.90	9.7675	0.0004	70771
2562.45	9.9990	0.0005	70943
2563.00	10.0892	0.0004	71090
2563.55	9.9816	0.0003	71246
2564.10	10.2016	0.0004	71398
2564.65	9.9001	0.0172	71554
2565.20	9.2571	0.0029	71656
2565.75	9.0916	0.0058	71742
2566.30	9.9009	0.0375	71807
2566.85	10.0430	0.0713	71884
2567.40	12.2284	0.2521	71958
2567.95	10.0651	0.0514	72035
2568.50	13.6899	0.5347	72106
2569.05	14.3692	0.5880	72179
2569.60	12.7449	0.3372	72247
2570.15	11.6659	0.3370	72314
2572.90	11.9643	0.3160	72645
2573.45	14.3784	0.6319	72711
2574.00	14.1185	0.4642	72777
2574.55	14.4134	0.5677	72842
2575.10	13.0855	0.2455	72904
2575.65	14.1302	0.5773	72969
2576.20	16.1307	0.8908	73033
2576.75	13.1204	0.4387	73092
2577.30	10.6929	0.1705	73149
2577.85	12.9672	0.3457	73212
2578.40	13.5153	0.4619	73272
2578.95	13.4574	0.3444	73332
2579.50	13.3344	0.2670	73394
2580.05	11.4580	0.1402	73452
2580.60	12.9501	0.3194	73514
2581.15	12.1268	0.3953	73573
2581.70	12.0529	0.2012	73633
2582.25	12.6184	0.2755	73688
2582.80	11.5135	0.1335	73747
2583.35	11.2279	0.1342	73804
2583.90	12.2761	0.2091	73866
2584.45	11.7838	0.1573	73920
2585.00	9.1058	0.0063	73972
2585.55	9.5229	0.0007	74032
2586.10	9.5008	0.0006	74153
2586.65	9.6969	0.0004	74283
2587.20	9.1452	0.0003	74409
2587.75	9.7924	0.0003	74541
2588.30	9.8569	0.0005	74705
2588.85	9.8840	0.0005	74847
2589.40	9.9298	0.0004	75003
2589.95	9.8694	0.0003	75138
2590.50	9.6448	0.0003	75292
2591.05	9.4929	0.0005	75414
2591.60	9.2697	0.0011	75517
2592.15	10.1700	0.0696	75605
2592.70	10.7946	0.0884	75684
2593.25	10.8335	0.1390	75756
2593.80	9.3834	0.0078	75825
2594.35	9.2963	0.0009	75912
2594.90	9.3981	0.0008	76004
2595.45	9.5764	0.0051	76093
2596.00	10.1325	0.0349	76185
2596.55	9.5435	0.0214	76265
2597.10	9.4393	0.0222	76347
2597.65	10.7749	0.0881	76430
2598.20	11.9117	0.2011	76509
2598.75	13.0032	0.3521	76587
2599.30	11.4811	0.1513	76657
2599.85	10.3960	0.0618	76727
2600.40	12.3409	0.2565	76798
2600.95	11.0672	0.1163	76868
2601.50	11.6093	0.1426	76949
2602.05	11.5441	0.2163	77023
2602.60	9.3407	0.0023	77092
2603.15	9.3970	0.0009	77174
2603.70	9.5751	0.0079	77268
2604.25	11.9540	0.2154	77354
2604.80	9.7075	0.0106	77438
2605.35	9.4192	0.0017	77522
2605.90	9.4249	0.0013	77608
2606.45	9.4374	0.0023	77690
2607.00	10.1975	0.0419	77768
2607.55	12.4220	0.2625	77845
2608.10	14.7418	0.1747	77922
2608.65	10.3426	0.9400	78001
2609.20	9.3766	0.0427	78078
2609.75	10.5337	0.0685	78157
2610.30	13.0065	0.2216	78236
2610.85	12.9782	0.3443	78309
2611.40	15.0248	0.7224	78392
2611.95	14.9808	0.8393	78468
2612.50	14.5555	0.6909	78537
2613.05	12.4589	0.2837	78605
2613.60	12.5329	0.3128	78676
2614.15	11.8959	0.4954	78749
2614.70	14.5826	0.5022	78821
2615.25	13.8782	0.4107	78893
2615.80	14.7926	0.5578	78965
2616.35	17.0909	1.1140	79035
2616.90	14.4665	0.5761	79109
2617.45	15.0464	0.6884	79180
2618.00	14.7554	0.5763	79250
2618.55	14.7349	0.5755	79316
2619.10	14.6965	0.6929	79387
2619.65	15.9717	1.0143	79456
2620.20	14.7688	0.7782	79525
2620.75	14.7528	0.6617	79590
2621.30	15.8174	0.9816	79660
2621.85	13.7182	0.6008	79726
2622.40	15.7441	0.9407	79794
2622.95	14.8213	0.8787	79862
2623.50	14.7043	0.8372	79930
2624.05	16.1424	1.0615	80001
2624.60	15.4482	0.8479	80070
2625.15	17.3308	1.3603	80136
2625.70	15.6006	0.9170	80206
2626.25	15.5556	0.8624	80275
2626.80	13.8658	0.5519	80346
2627.35	14.0260	0.6076	80420
2627.90	15.0669	0.9028	80495
2628.45	15.1506	0.9670	80564
2629.00	13.7299	0.5675	80633
2629.55	15.4279	0.7062	80703
2630.10	15.1591	0.7303	80771
2630.65	16.4573	0.9223	80838
2631.20	14.1610	0.5642	80907
2631.75	13.4629	0.4508	80976
2632.30	16.9172	1.0505	81048
2632.85	15.4774	0.7745	81121
2633.40	18.7563	1.3167	81188
2633.95	17.8658	1.1221	81252
2634.50	18.6225	1.5390	81317
2635.05	15.9031	0.7728	81385
2635.60	16.4050	0.8081	81458
2636.15	17.9083	1.3136	81528
2636.70	18.4187	1.4496	81600
2637.25	16.4672	1.0139	81670
2637.80	15.6649	0.9306	81739
2638.35	17.1740	1.3753	81804
2638.90	18.0209	1.5170	81869
2639.45	16.7605	1.0836	81935
2640.00	15.9326	0.7388	82000
2640.55	16.9544	0.8729	82067
2641.10	17.3701	1.2662	82136
2642.75	16.1344	0.9821	82335
2643.30	16.1781	0.8849	82402
2643.85	16.1398	0.9384	82472
2644.40	16.5918	1.0120	82543
2644.95	16.4354	1.0083	82612
2645.50	15.4681	0.8339	82681
2646.05	15.8277	0.8368	82747
2646.60	14.7464	0.6801	82814
2647.15	17.5320	1.2894	82879
2647.70	15.3132	0.7755	82942
2648.25	12.3878	0.3577	83006
2648.80	9.3193	0.0009	83072
2649.35	9.2693	0.0007	83172
2649.90	11.3261	0.1908	83265
2650.45	11.0186	0.0930	83342
2651.00	9.2170	0.0007	83421
2651.55	9.2115	0.0007	83512
2652.10	9.3292	0.0008	83610
2652.65	9.5136	0.0008	83710
2653.20	9.6949	0.0006	83797
2653.75	9.1587	0.0005	83898
2654.30	9.3594	0.0007	83989
2654.85	9.7181	0.0007	84089
2655.40	9.5793	0.0006	84187
2655.95	9.5258	0.0005	84294
2656.50	9.2294	0.0007	84403
2657.05	9.4095	0.0006	84507
2657.60	9.5918	0.0004	84619
2658.15	9.5826	0.0005	84729
2658.70	9.5204	0.0004	84836
2659.25	9.3525	0.0007	84960
2659.80	9.5424	0.0006	85080
2660.35	9.6350	0.0004	85194
2660.90	9.3139	0.0005	85330
2661.45	9.8483	0.0006	85451
2662.00	9.8468	0.0005	85575
2662.55	10.0195	0.0003	85708
2663.10	9.9018	0.0003	85852
2663.65	10.0211	0.0003	85988
2664.20	9.1168	0.0026	86118
2664.75	9.3115	0.0051	86217
2665.30	9.4319	0.0013	86312
2665.85	9.5596	0.0116	86422
2666.40	12.0718	0.2304	86527
2666.95	9.5379	0.0140	86621
2667.50	9.7320	0.0258	86720
2668.05	13.0531	0.3642	86816
2668.60	10.1170	0.0489	86909
2669.15	11.9585	0.2269	87002
2669.70	13.2691	0.3936	87093
2670.25	13.3322	0.3511	87183
2670.80	11.1481	0.1448	87278
2671.35	13.4537	0.5178	87381
2671.90	15.3514	0.8634	87480
2673.55	13.2488	0.5482	87750
2674.10	13.6563	0.5772	87844
2674.65	14.3775	0.7508	87933
2675.20	15.3611	0.8812	88024
2675.75	17.1893	1.2513	88113
2676.30	16.8141	1.1770	88200
2676.85	16.5402	1.0125	88293
2677.40	14.9341	0.7260	88382
2677.95	14.3591	0.6593	88479
2678.50	14.3059	0.6477	88574
2680.70	11.7776	0.2231	89001
2681.25	12.7332	0.3834	89110
2681.80	12.9245	0.3727	89225
2682.35	10.5898	0.0559	89337
2682.90	11.4859	0.1785	89460
2683.45	11.8279	0.2250	89579
2685.65	10.4365	0.0387	90043
2686.20	9.2790	0.0045	90163
2686.75	10.1772	0.0326	90291
2687.30	9.8725	0.0226	90427
2687.85	12.8407	0.4341	90551
2688.40	13.2207	0.4854	90676
2688.95	12.8547	0.3724	90803
2689.50	10.4279	0.0400	90924
2690.05	13.9506	0.5216	91045
2690.60	13.3458	0.5384	91177
2691.15	17.7923	1.3594	91298
2691.70	12.9713	0.2664	91417
2692.25	13.4693	0.3248	91540
2692.80	10.4296	0.0711	91669
2693.35	10.4384	0.0530	91792
2693.90	12.1680	0.2263	91930
2694.45	13.2442	0.3483	92059
2695.00	11.1184	0.1176	92184
2695.55	16.0829	0.8724	92309
2696.10	13.0951	0.3151	92438
2696.65	13.8790	0.4939	92573
2697.20	13.6278	0.3474	92702
2697.75	12.8194	0.2354	92820
2699.95	11.4334	0.1077	93325
2700.50	13.0318	0.3298	93449
2701.05	13.1243	0.3563	93575
2701.60	16.2260	0.8910	93700
2702.15	12.5765	0.3138	93828
2702.70	11.0379	0.1299	93952
2703.25	13.1032	0.3823	94076
2703.80	11.3900	0.1486	94206
2704.35	12.4383	0.2653	94326
2704.90	13.8777	0.4736	94454
2705.45	13.5251	0.5500	94567
2706.00	12.8185	0.3669	94687
2706.55	12.9732	0.3530	94810
2707.10	13.3686	0.4680	94928
2707.65	11.7295	0.2753	95050
2708.75	15.8656	0.1263	95295
2709.30	17.1533	0.2663	95419
2709.85	13.3821	0.6682	95538
2710.40	14.2411	0.8405	95665
2710.95	13.5685	0.4601	95783
2711.50	12.6624	0.2297	95895
2712.05	11.0357	0.0772	96014
2712.60	14.5267	0.4855	96152
2713.15	13.7164	0.4680	96272
2713.70	12.1600	0.2571	96392
2714.25	13.6638	0.5157	96521
2714.80	15.6765	0.7801	96647
2715.35	14.8625	0.8587	96765
2715.90	15.7613	0.9462	96882
2716.45	12.9261	0.4124	96995
2717.00	12.2825	0.2782	97117
2717.55	13.3658	0.3575	97235
2718.10	14.1621	0.4108	97354
2718.65	14.8831	0.5259	97471
2719.20	13.8439	0.3522	97591
2719.75	14.1727	0.5503	97708
2720.30	15.0247	0.7790	97825
2720.85	14.2120	0.6334	97944
2721.40	15.2779	0.6335	98065
2721.95	16.8125	0.9830	98171
2722.50	17.3166	1.0862	98290
2723.05	16.0718	0.8973	98399
2723.60	15.7051	0.9275	98513
2724.15	16.1911	1.0716	98623
2724.70	15.5979	0.8818	98735
2725.25	15.0942	0.8146	98844
2725.80	15.4933	0.7283	98951
2726.35	15.1963	0.6756	99063
2726.90	18.0483	1.3371	99178
2727.45	15.1336	0.7757	99288
2728.00	15.1656	0.5996	99406
2728.55	16.1194	0.8613	99518
2729.10	15.5653	0.8401	99631
2729.65	17.3506	1.1486	99748
2730.20	17.6463	1.2953	99860
2730.75	20.4290	1.9275	99970
2731.30	17.1884	1.0197	100080
2731.85	16.3702	0.9584	100189
2732.40	16.6975	1.0456	100296
2732.95	15.7560	0.9314	100406
2733.50	16.8297	1.1824	100513
2734.05	17.6035	1.3301	100624
2734.60	16.9899	1.0430	100727
2735.15	15.9303	0.9635	100831
2735.70	15.0142	0.7925	100936
2736.25	15.1207	0.6927	101044
2736.80	15.5538	0.9402	101146
2737.35	17.6331	1.2203	101249
2737.90	17.7276	1.3295	101355
2738.45	17.8437	1.1931	101465
2739.00	16.3294	0.7421	101570
2739.55	15.7482	0.6991	101675
2740.10	16.3792	0.8150	101780
2740.65	16.9631	1.1080	101883
2741.20	17.0457	1.2173	101992
2741.75	17.0593	1.0946	102094
2742.30	15.3507	0.7845	102198
2742.85	14.4922	0.6528	102302
2743.40	15.7639	0.7836	102401
2743.95	16.3127	0.8856	102503
2744.50	16.1876	0.8852	102604
2745.05	16.2342	0.8415	102704
2745.60	15.7478	0.8366	102801
2746.15	16.8310	1.1349	102903
2746.70	16.2279	0.9792	103010
2747.25	15.6607	0.8801	103119
2747.80	15.8503	1.0109	103225
2748.35	15.9963	0.9243	103326
2748.90	16.2957	0.8916	103429
2749.45	15.7310	0.8895	103527
2750.00	15.0398	0.7488	103629
2750.55	15.7842	0.8939	103736
2751.10	10.8280	0.1761	103843
2751.65	9.2386	0.0012	103963
2752.20	9.6010	0.0208	104118
2752.75	9.3164	0.0150	104242
2753.30	9.0569	0.0008	104370
2754.40	13.5776	0.2118	104669
2754.95	12.9131	0.4792	104783
2755.50	9.2588	0.0159	104898
2756.05	8.9250	0.0030	105041
2756.60	9.3887	0.0130	105196
2757.15	12.4911	0.3591	105351
2757.70	14.3060	0.6271	105485
2758.25	15.8914	0.9677	105602
2758.80	15.2569	0.7872	105707
2759.35	14.2207	0.6799	105809
2759.90	14.5909	0.7220	105914
2760.45	14.0507	0.5333	106026
2761.00	14.6368	0.5993	106146
2761.55	12.4060	0.4103	106275
2762.10	12.7545	0.4210	106405
2762.65	12.7299	0.3696	106540
2763.20	11.6676	0.2207	106672
2763.75	11.4472	0.2050	106812
2764.30	11.3754	0.2093	106957
2764.85	13.2505	0.3310	107092
2765.40	14.0278	0.4976	107230
2765.95	13.1239	0.4533	107369
2766.50	12.3310	0.3585	107507
2767.05	12.4692	0.3864	107645
2767.60	11.7989	0.2538	107782
2768.15	11.5687	0.2127	107922
2768.70	12.8475	0.4734	108074
2769.25	11.2342	0.1614	108218
2769.80	10.6149	0.0968	108356
2770.35	11.0887	0.1427	108501
2770.90	11.5592	0.1778	108637
2771.45	12.3591	0.3215	108786
2772.00	12.3507	0.1960	108927
2772.55	10.8886	0.1255	109074
2773.10	9.7058	0.0530	109235
2773.65	10.1213	0.0803	109397
2774.20	12.0272	0.3075	109556
2774.75	13.1425	0.4175	109732
2775.30	12.2636	0.3063	109913
2775.85	10.4613	0.1127	110080
2776.40	10.4218	0.0702	110247
2776.95	10.9931	0.0957	110422
2777.50	11.1864	0.1879	110588
2778.05	10.8247	0.1757	110756
2778.60	12.0172	0.3764	110933
2779.15	14.1505	0.8814	111122
2779.70	16.6366	0.9309	111287
2780.25	15.9459	0.9376	111425
2780.80	12.5585	0.3247	111558
2783.00	11.0935	0.1796	112262
2783.55	11.2559	0.2266	112437
2784.10	11.3832	0.2183	112608
2784.65	12.2852	0.2908	112781
2785.20	14.7376	0.8051	112952
2785.75	14.0822	0.6619	113102
2786.30	13.3119	0.4966	113254
2786.85	13.8648	0.6200	113405
2787.40	12.8195	0.5129	113551
2787.95	14.3591	0.6961	113712
2788.50	16.3394	1.1347	113840
2789.05	16.5975	1.0875	113950
2789.60	16.6726	1.1417	114060
2790.15	17.6579	1.3396	114171
2790.70	17.3984	1.3662	114278
2791.25	17.1234	1.1760	114384
2791.80	16.7096	1.0422	114493
2792.35	15.8347	0.9289	114605
2792.90	16.6012	1.1851	114721
2793.45	15.8527	1.0767	114839
2794.00	16.7940	0.7585	114953
2794.55	16.6874	0.9288	115066
2795.10	16.9031	1.2380	115180
2795.65	17.9357	1.5655	115294
2796.20	18.4459	1.6341	115400
2796.75	14.1963	0.6714	115505
2797.30	17.9246	1.4811	115627
2797.85	17.3510	1.3255	115733
2798.40	16.8602	1.0722	115844
2798.95	16.4669	1.0535	115960
2799.50	15.8887	0.9949	116078
2800.05	15.1887	0.7731	116204
2800.60	14.8394	0.8562	116331
2801.15	15.8702	1.0643	116457
2801.70	16.1661	0.9910	116587
2802.25	15.7637	0.9535	116714
2802.80	16.2663	1.0751	116839
2803.35	16.1465	1.1209	116964
2803.90	15.4716	0.9788	117091
2804.45	14.1051	0.6953	117224
2805.00	13.7420	0.5713	117371
2805.55	12.2023	0.3330	117533
2806.10	11.1685	0.1883	117706
2806.65	12.0849	0.3785	117885
2807.20	13.6342	0.5553	118070
2807.75	13.0010	0.4001	118242
2808.30	11.1017	0.1355	118414
2808.85	15.3826	0.8914	118609
2809.40	18.2622	1.2543	118738
2809.95	18.2005	1.3425	118853
2810.50	16.6399	1.2538	118968
2811.05	17.2865	1.5085	119089
2811.60	18.5696	1.5540	119207
2812.15	18.2563	1.1911	119324
2812.70	17.1434	1.2498	119441
2813.25	17.6093	1.1674	119560
2813.80	17.4773	1.5293	119678
2814.35	17.9029	1.5340	119796
2814.90	16.1060	1.2296	119916
2815.45	16.3474	1.0080	120049
2816.00	16.5844	1.0708	120187
2816.55	16.4661	1.1000	120326
2817.10	16.0367	0.9941	120460
2817.65	15.9036	1.0385	120590
2818.20	16.3823	0.9830	120726
2818.75	16.6293	0.9396	120866
2819.30	16.1828	0.9153	121008
2819.85	14.1775	0.5964	121151
2820.40	14.6827	0.6043	121308
2820.95	14.9829	0.6966	121465
2821.50	13.8520	0.4287	121626
2822.05	13.0835	0.3785	121799
2822.60	14.3662	0.6162	121973
2823.15	15.0110	0.7193	122140
2823.70	14.6454	0.7680	122297
2824.25	14.6758	0.8932	122453
2824.80	14.3856	0.7835	122617
2825.35	13.5281	0.3604	122780
2825.90	13.0697	0.4535	122952
2826.45	12.7001	0.3903	123119
2827.00	12.8962	0.4240	123290
2827.55	13.2608	0.5202	123461
2828.10	13.9987	0.5842	123635
2828.65	14.0376	0.5775	123822
2829.20	14.7164	0.7513	124004
2829.75	15.0748	0.7608	124183
2830.30	14.8627	0.6314	124351
2830.85	14.1695	0.6908	124516
2831.40	13.4009	0.4415	124695
2831.95	13.4103	0.4114	124881
2832.50	14.6460	0.6392	125063
2833.05	13.7539	0.5225	125250
2833.60	15.8853	0.9827	125452
2834.15	16.3060	1.0905	125645
2834.70	13.9590	0.6221	125842
2835.25	13.4656	0.4839	126038
2835.80	14.5766	0.8052	126247
2836.35	15.2549	0.8590	126445
2836.90	17.4398	1.1645	126613
2837.45	18.0753	1.3090	126754
2838.00	18.5802	1.4188	126892
2838.55	18.8802	1.2136	127030
2839.10	18.2000	1.4524	127168
2839.65	17.9962	1.4407	127307
2840.20	18.5322	1.3614	127448
2840.75	17.9194	1.3564	127587
2841.30	18.0459	1.3674	127730
2841.85	17.9967	1.1384	127873
2842.40	18.5689	1.3703	128015
2842.95	18.2683	1.3356	128157
2843.50	18.2814	1.4454	128300
2844.05	18.1080	1.4981	128443
2844.60	18.1977	1.3976	128586
2845.15	18.4243	1.3593	128730
2845.70	18.9772	1.5117	128875
2846.25	18.1752	1.4171	129020
2846.80	15.1094	0.8650	129167
2847.35	13.0998	0.4894	129340
2847.90	18.4542	1.2831	129527
2848.45	18.7001	1.2840	129674
2849.00	17.9379	1.5445	129822
2849.55	18.6926	1.3740	129973
2850.10	18.2744	1.5004	130123
2850.65	18.0820	1.3699	130273
2851.20	17.3173	1.3348	130424
2851.75	13.3550	0.6099	130575
2852.30	13.7465	0.5931	130744
2852.85	18.7099	1.5500	130921
2853.40	15.2944	0.9043	131074
2853.95	17.6391	1.3514	131250
2854.50	16.7408	1.3287	131429
2855.05	13.3662	0.6165	131616
2855.60	18.3554	1.4130	131817
2856.15	18.6696	1.2143	131973
2856.70	19.1812	1.4314	132130
2857.25	18.4839	1.4103	132288
2857.80	13.2614	0.5330	132446
2858.35	9.2119	0.0018	132627
2858.90	9.0464	0.0015	132891
2859.45	15.0297	0.7776	133159
2860.00	18.2703	1.3272	133332
2860.55	18.6128	1.3057	133493
2861.10	17.5178	1.3368	133655
2861.65	12.3328	0.3847	133818
2862.20	9.5396	0.0262	134012
2862.75	10.5103	0.1963	134232
2863.30	9.2780	0.0006	134438
2863.85	9.5454	0.0006	134728
2864.40	11.8689	0.2818	135031
2864.95	12.1367	0.2897	135236
2867.15	9.2905	0.0084	136183
2867.70	9.2291	0.0024	136401
2868.25	9.2123	0.0004	136647
2868.80	9.1192	0.0005	137007
2869.35	9.2445	0.0011	137365
2869.90	9.6077	0.0411	137639
2870.45	11.7900	0.3870	137912
2871.00	8.7516	0.0014	138096
2871.55	9.1381	0.0017	138333
2872.10	9.0426	0.0013	138565
2872.65	9.1871	0.0009	138803
2873.20	8.8791	0.0009	139113
2873.75	9.3852	0.0007	139422
2874.30	9.3671	0.0008	139764
2874.85	9.7281	0.0005	140086
2875.40	9.3116	0.0006	140425
2875.95	9.1542	0.0006	140805
2876.50	9.2390	0.0005	141194
2877.05	9.3580	0.0005	141557
2877.60	9.2675	0.0006	141972
2878.15	8.9601	0.0006	142379
2878.70	8.7947	0.0007	142778
2879.25	9.1855	0.0006	143105
2879.80	9.0617	0.0004	143472
2880.35	9.1765	0.0004	143823
2880.90	9.4693	0.0006	144191
2881.45	9.2124	0.0006	144557
2882.00	10.0284	0.0003	144923
2882.55	10.2534	0.0004	145454
2883.10	10.2053	0.0004	145940
2883.65	10.1127	0.0004	146379
2884.20	10.0873	0.0003	146831
2884.75	10.2785	0.0005	147368
2885.30	9.8377	0.0005	147815
2885.85	9.7087	0.0006	148268
2886.40	9.7419	0.0004	148726
2886.95	9.9723	0.0007	149165
2887.50	9.7994	0.0008	149652
2888.05	9.3157	0.0007	150129
2888.60	9.1140	0.0008	150592
2889.15	9.3396	0.0007	151008
2889.70	9.6165	0.0007	151443
2890.25	9.6524	0.0011	151874
2890.80	9.5902	0.0011	152294
2891.35	9.8681	0.0009	152702
2891.90	9.8199	0.0008	153136
2892.45	9.6684	0.0007	153567
2893.00	10.0425	0.0613	153983
2893.55	9.8265	0.0007	154267
2894.10	9.7906	0.0007	154718
2894.65	10.1668	0.0005	155182
2895.20	9.6394	0.0006	155683
2895.75	9.6369	0.0006	156112
2896.30	9.6610	0.0005	156519
2896.85	10.2566	0.0004	156940
2897.40	10.1238	0.0004	157469
2897.95	9.7392	0.0004	157993
2898.50	9.1996	0.0057	158472
2899.05	9.6040	0.0006	158767
2899.60	9.7298	0.0005	159231
2900.15	9.7343	0.0006	159697
2900.70	10.0983	0.0004	160146
2901.25	10.0593	0.0004	160666
2901.80	9.5594	0.0005	161157
2902.35	9.6005	0.0008	161671
2902.90	9.4048	0.0010	162147
2903.45	9.4177	0.0009	162534
2904.00	9.5550	0.0006	162951
2904.55	9.1739	0.0007	163432
2905.10	9.1096	0.0007	163871
2905.65	8.8849	0.0009	164336
2906.20	8.9079	0.0013	164720
2906.75	8.9929	0.0015	165073
2907.30	8.7839	0.0016	165451
2907.85	9.0375	0.0011	165800
2908.40	9.1123	0.0008	166180
2908.95	8.9033	0.0009	166624
2909.50	8.9271	0.0008	167005
2910.05	8.6936	0.0008	167355
2910.60	9.0304	0.0008	167726
2911.15	8.9557	0.0012	168141
2911.70	8.6385	0.0022	168527
2912.25	8.8022	0.0013	168892
2912.80	8.9619	0.0013	169303
2913.35	9.5559	0.0098	169713
2913.90	8.8858	0.0019	170118
2914.45	8.5566	0.0009	170527
2915.00	8.9710	0.0015	170935
2915.55	15.8572	0.9246	171422
2916.10	18.3137	1.3190	171696
2916.65	16.1533	1.2247	171964
2917.20	8.9231	0.0194	172235
2917.75	9.1030	0.0012	172608
2918.30	9.2083	0.0502	173034
2918.85	13.6583	0.5766	173401
2919.40	9.4303	0.0025	173702
2919.95	9.8260	0.0012	174086
2920.50	9.1842	0.0015	174586
2921.05	9.3416	0.0007	175004
2921.60	9.4447	0.0007	175471
2922.15	9.6399	0.0005	176061
2922.70	9.7813	0.0006	176611
2923.25	9.7202	0.0012	177195
2923.80	9.5937	0.0006	177675
2924.35	9.6869	0.0004	178223
2924.90	9.5510	0.0009	178857
2925.45	9.3974	0.0007	179391
2926.00	9.9738	0.0005	179963
2926.55	9.4123	0.0008	180653
2927.10	9.4222	0.0077	181137
2927.65	9.5965	0.0071	181604
2928.20	9.5582	0.0011	182083
2928.75	12.1981	0.4822	182643
2929.30	10.1509	0.0786	182981
2929.85	9.0980	0.0016	183373
2930.40	15.6860	1.3642	183865
2930.95	9.3126	0.0133	184186
2931.50	9.8136	0.0349	184616
2932.05	10.1326	0.0659	185076
2932.60	9.0959	0.0103	185546
2933.15	11.2506	0.2064	186028
2933.70	14.9049	0.9186	186480
2934.25	13.6154	0.5652	186928
2934.80	10.3839	0.0823	187374
2935.35	9.0076	0.0019	187848
2935.90	9.6473	0.0178	188347
2936.45	9.3845	0.0027	188834
2937.00	8.9932	0.0009	189327
2937.55	8.7768	0.0012	189852
2938.10	8.8792	0.0016	190357
2938.65	8.9847	0.0010	190880
2939.20	8.9741	0.0009	191462
2939.75	8.9120	0.0012	192043
2940.30	9.0169	0.0017	192642
2940.85	9.2733	0.0019	193149
2941.40	8.5758	0.0021	193679
2941.95	8.6164	0.0024	194218
2942.50	8.6646	0.0026	194737
2943.05	8.9551	0.0043	195271
2943.60	8.9438	0.0088	195793
2944.15	8.8590	0.0064	196285
2944.70	9.5540	0.0262	196801
2945.25	9.3694	0.0071	197314
2945.80	8.8010	0.0012	197828
2946.35	9.0637	0.0009	198441
2946.90	9.7935	0.0472	199121
2947.45	12.0104	0.3073	199670
2948.00	13.3206	0.4472	200215
2948.55	11.1290	0.1742	200765
2949.10	9.0408	0.0169	201342
2949.65	8.7367	0.0014	201931
2950.20	8.8451	0.0054	202606
2950.75	8.7187	0.0044	203198
2951.30	8.8480	0.0024	203781
2951.85	9.0561	0.0010	204389
2952.40	9.7897	0.0005	205064
2952.95	9.2106	0.0013	205913
2953.50	9.3511	0.0015	206582
2954.05	9.2756	0.0010	207277
2954.60	9.0940	0.0019	207972
2955.15	9.0112	0.0018	208606
2955.70	9.0364	0.0017	209264
2956.25	9.2152	0.0022	209928
2956.80	9.2163	0.0130	210575
2957.35	10.2677	0.0957	211195
2957.90	9.2462	0.0192	211774
2958.45	9.7564	0.0491	212393
2959.00	11.9926	0.3439	213034
2959.55	9.7069	0.0533	213626
2960.10	10.1688	0.0427	214289
2960.65	13.3376	0.5457	214926
2961.20	12.3345	0.2458	215497
2961.75	12.3802	0.1568	216140
2962.30	12.7244	0.2099	216804
2962.85	12.0856	0.2263	217430
2963.40	9.3197	0.0066	218002
2963.95	9.6424	0.0133	218657
2964.50	9.6500	0.0198	219331
2965.05	10.1522	0.0651	219964
2965.60	9.2275	0.0075	220575
2966.15	9.4631	0.0092	221228
2966.70	9.8985	0.0116	221960
2967.25	11.5792	0.1471	222680
2967.80	9.0788	0.0527	223278
2968.35	10.9762	0.0767	223983
2968.90	11.3433	0.0982	224702
2969.45	11.9222	0.1701	225390
2970.00	10.2712	0.0563	226100
2970.55	11.1525	0.1281	226919
2971.10	11.8606	0.2161	227753
2971.65	10.5737	0.1064	228573
2972.20	11.0131	0.1308	229387
2972.75	11.6990	0.2373	230212
2973.30	12.3336	0.2749	231065
2973.85	12.8090	0.4325	231921
2974.40	10.4139	0.0964	232773
2974.95	10.4690	0.0952	233628
2975.50	11.9063	0.2559	234497
2976.05	9.3529	0.0142	235408
2976.60	10.8580	0.0760	236313
2977.15	11.3758	0.1180	237162
2977.70	9.0173	0.0026	238035
2978.25	8.8516	0.0015	238950
2978.80	8.9824	0.0014	239905
2979.35	9.1953	0.0015	240894
2979.90	8.9502	0.0014	241908
2980.45	8.8346	0.0012	243005
2981.00	9.0130	0.0012	244130
2981.55	9.0039	0.0008	245211
2982.10	9.3406	0.0007	246377
2982.65	8.9847	0.0009	247618
2983.20	8.9851	0.0016	
2983.75	9.2289	0.0013	
2984.30	9.0427	0.0010	
2984.85	8.9337	0.0011	
2985.40	8.9967	0.0012	
2985.95	8.8313	0.0012	
2986.50	9.0245	0.0019	
2987.05	8.8346	0.0019	
2987.60	9.0136	0.0013	
2988.15	8.9585	0.0009	
2988.70	9.3234	0.0009	
2989.25	9.2226	0.0009	
2989.80	9.0794	0.0013	
2990.35	8.4860	0.0013	
2990.90	8.8508	0.0014	
2991.45	8.8022	0.0011	
2992.00	8.8419	0.0010	
2992.55	9.3249	0.0009	
2993.10	9.3734	0.0017	
2993.65	9.6535	0.0089	
2994.20	9.6358	0.0195	
2994.75	9.6644	0.0251	
2995.30	9.3414	0.0104	
2995.85	8.9225	0.0019	
2996.40	8.9667	0.0010	
2996.95	8.9723	0.0014	
2997.50	9.3709	0.0013	
2998.05	9.3769	0.0008	
2998.60	8.9809	0.0008	
2999.15	8.7850	0.0009	
2999.70	9.0427	0.0011	
3000.25	9.1473	0.0009	
3000.80	8.9038	0.0009	
3001.35	8.9681	0.0007	
3001.90	9.1614	0.0007	
3002.45	9.2023	0.0006	
3003.00	9.1799	0.0023	
3003.55	9.0450	0.0021	
3004.10	9.1699	0.0012	
3004.65	9.2277	0.0008	
3005.20	9.2999	0.0007	
3005.75	9.2371	0.0008	
3006.30	9.2510	0.0007	
3006.85	9.0646	0.0008	
3007.40	8.9103	0.0006	
3007.95	9.2337	0.0009	
3008.50	9.1330	0.0009	
3009.05	8.8887	0.0010	
3009.60	8.9712	0.0011	
3010.15	8.8949	0.0008	
3010.70	9.5269	0.0008	
3011.25	9.8139	0.0009	
3011.80	9.0342	0.0010	
3012.35	10.0949	0.0228	
3012.90	15.9359	0.7128
3013.45	13.9479	0.5822
3014.00	10.8094	0.1280
3014.55	10.5370	0.0546
3015.10	10.2852	0.0694
3015.65	9.8483	0.0638
3016.20	9.9748	0.0282
3016.75	9.9365	0.0199
3017.30	9.1010	0.0142
3017.85	9.3248	0.0078
3018.40	9.3229	0.0036
3018.95	9.1028	0.0016
3019.50	8.8941	0.0013
3020.05	8.9679	0.0007
3020.60	8.9110	0.0006
3021.15	8.9069	0.0006
3021.70	9.0946	0.0007
