GISP2 Electrical Conductivity Measurements

REFERENCES: 

Taylor, K.C., R.B. Alley, G.W. Lamorey, and P.A. Mayewski. 1997. Electrical
measurements on the Greenland Ice Sheet Project 2 core. Journal of
Geophysical Research 102:26511-26517.

Taylor, K.C., P.A. Mayewski, M.S. Twickler, and S.I. Whitlow. 1996. Biomass
burning recorded in the GISP2 ice core: A record from eastern Canada? The
Holocene 6(1):1-6.

Chylek, P., B. Johnson, P.A. Damiano, K.C. Taylor, and P. Clement. 1995.
Biomass burning record and black carbon in the GISP2 ice core. Geophysical
Research Letters 22:89-92.

Taylor, K.C., G.W. Lamorey, G.A. Doyle, R.B. Alley, P.M. Grootes, P.A.
Mayewski, J.W.C. White, and L.K. Barlow. 1993. The 'flickering switch' of
late Pleistocene climate change. Nature 361:432-436.

Taylor, K.C., R.B. Alley, R.J. Fiacco, P.M. Grootes, G.W. Lamorey, P.A.
Mayewski, and M.J. Spencer. 1992. Ice core dating and chemistry by direct
current electrical conductivity. Journal of Glaciology 38:325-332.

DATA DESCRIPTION: 

The ECM file ECMage.dat represents 0.5 meter averages of the data in the
b****.dat and d****.dat files.  The GISP2 B core was used for the first
100 meters; the D core thereafter.  All depths are D core depths, ages are
on the Meese/Sowers timescale.  See ECMinfo.txt and depthage.dat for
further information. 

DATA: 

Depth	ECM	Age
Top (m)	microamps	Top (yr BP 1950)
		
4.11	11.244	-33.8
4.61	14.89	-33.1
5.14	9.178	-32.1
5.7	10.199	-30.7
6.24	17.752	-29.7
6.78	15.005	-28.6
7.31	13.901	-27.5
7.83	14.421	-26.7
8.35	13.164	-25.8
8.89	13.113	-24.7
9.42	12.141	-23.3
9.96	17.25	-21.9
10.5	16.056	-20.8
11.03	16.605	-19.6
11.55	15.85	-18.4
12.08	17.244	-17.1
12.6	15.578	-15.9
13.12	16.534	-14.4
13.65	16.79	-13.2
14.18	14.809	-12.0
14.71	17.788	-10.7
15.23	16.951	-9.4
15.75	17.238	-8.2
16.28	17.537	-7.0
16.81	18.684	-5.7
17.34	18.06	-4.4
17.86	17.964	-3.4
18.39	18.961	-2.2
18.92	17.418	-1.0
19.45	12.986	0.8
19.98	19.794	2.2
20.52	17.879	3.3
21.07	17.475	4.9
21.61	19.546	6.1
22.13	21.843	7.3
22.66	18.275	8.5
23.18	20.154	9.7
23.71	18.419	11.1
24.23	20.288	12.4
24.75	22.039	14.2
25.26	17.949	15.5
25.77	18.95	16.7
26.31	18.864	18.2
26.87	20.674	19.7
27.42	21.969	21.0
27.96	27.102	22.4
28.49	23.28	24.2
29.03	25.014	25.9
29.58	22.885	27.7
30.13	19.279	29.3
30.67	20.607	31.0
31.23	24.39	32.8
31.8	22.754	34.3
32.34	24.148	35.6
32.87	30.588	37.1
33.42	21.715	38.6
33.97	17.989	40.2
34.5	21.761	41.6
35.02	21.921	43.2
35.55	22.175	45.2
36.09	20.413	46.9
36.65	20.769	49.4
37.2	18.914	50.8
37.74	21.062	52.5
38.26	20.178	54.2
38.79	16.144	55.8
39.32	21.144	57.4
39.85	20.912	58.9
40.39	16.24	60.5
40.96	19.275	62.0
41.53	18.371	63.6
42.06	26.537	65.2
42.61	22.795	66.7
43.17	19.302	68.9
43.72	19.052	70.6
44.25	16.28	71.9
44.79	15.964	73.4
45.32	16.829	75.4
45.86	19.075	76.9
46.41	17.495	78.5
46.96	14.68	80.3
47.51	13.346	82.3
48.05	17.861	84.3
48.58	15.28	86.1
49.15	17.264	87.9
49.72	16.994	89.9
50.26	18.67	91.4
50.81	22.06	93.4
51.39	19.165	95.1
51.96	17.432	96.7
52.52	17.1	98.6
53.06	15.442	100.4
53.62	16.584	102.3
54.17	18.188	104.0
54.74	16.692	106.5
55.31	16.132	108.4
55.87	17.78	110.6
56.44	16.425	112.5
57.01	23.709	114.3
57.57	19.492	116.5
58.13	21.905	118.2
58.66	18.114	119.7
59.21	20.703	121.0
59.77	20.784	122.5
60.32	21.703	124.5
60.88	28.29	126.4
61.46	26.412	128.6
62.05	24.816	130.6
62.63	30.269	132.8
63.2	27.265	135.4
63.78	30.037	137.8
64.35	29.693	139.6
64.93	18.292	141.4
65.51	25.789	143.3
66.07	29.992	145.4
66.63	26.793	147.1
67.2	25.906	149.3
67.77	27.328	151.7
68.33	28.993	153.3
68.88	24.395	155.1
69.46	20.042	157.3
70.03	24.878	159.5
70.58	28.935	161.7
71.17	23.161	164.1
71.76	45.599	165.6
72.31	28.995	167.5
72.85	29.402	169.8
73.37	32.737	171.8
73.9	28.271	174.0
74.43	26.006	176.1
74.97	27.004	177.8
75.56	31.29	180.3
76.17	34.527	182.5
76.79	30.078	185.6
77.43	35.613	187.8
78.05	25.952	190.4
78.64	23.597	192.0
79.26	32.211	194.6
79.91	25.082	196.8
80.52	29.529	199.3
81.17	27.975	201.1
81.78	28.017	203.1
82.34	30.147	205.8
82.95	26.157	208.2
83.58	25.002	211.1
84.18	32.171	213.5
84.76	30.665	215.4
85.35	31.187	217.6
85.95	40.171	219.7
86.54	39.936	221.8
87.15	34.574	224.1
87.77	34.204	226.6
88.36	33.207	228.5
88.94	35.075	230.7
89.53	33.662	233.2
90.15	35.392	235.9
90.8	29.83	238.3
91.45	33.899	240.9
92.11	27.901	243.7
92.77	18.188	246.5
93.37	27.289	249.4
93.98	27.997	251.4
94.55	35.59	253.3
95.12	42.411	255.1
95.72	35.517	257.7
96.31	34.237	259.8
96.92	28.271	261.9
97.59	31.794	264.7
98.25	30.964	266.9
98.87	31.24	269.3
99.47	24.342	271.5
100.24	37.907	274.2
101.25	14.0752	278.3
102.21	17.9514	282.0
102.75	14.2412	283.8
103.3	15.5106	287.0
103.89	17.4024	289.5
104.44	16.7	291.8
104.98	13.2782	293.6
105.53	15.9384	295.7
106.1	14.694	298.0
106.65	14.2864	300.3
107.2	13.1844	302.3
107.8	14.0034	304.3
108.35	16.7708	306.8
108.9	20.4744	309.0
109.47	14.1326	311.6
110.02	12.1354	313.4
110.6	12.4274	315.0
111.16	11.2408	317.5
111.71	12.1656	319.5
112.25	13.4634	321.3
112.8	15.2246	323.7
113.35	14.3672	326.4
113.9	13.755	328.3
114.5	14.926	330.7
115.09	16.6358	333.0
115.64	14.859	334.8
116.19	15.2486	337.0
116.76	15.9492	339.3
117.47	16.8238	342.7
118.25	20.9246	346.2
118.89	15.4436	348.5
119.46	19.8294	350.9
120.02	17.7896	353.1
120.59	14.3244	355.5
121.14	18.784	358.5
121.7	15.8988	360.3
122.25	18.172	362.2
122.8	16.0224	364.0
123.36	15.116	366.6
123.91	23.202	368.6
124.46	27.8364	371.2
125.01	27.2874	372.8
125.58	21.1812	375.4
126.14	12.9056	377.7
126.71	20.0728	380.4
127.3	16.5902	382.7
127.86	19.6702	385.3
128.41	16.2052	387.7
129	13.7764	390.5
129.8	18.5354	394.5
130.59	17.3	397.6
131.16	15.105	399.9
131.75	12.2252	402.3
132.33	11.6394	404.8
132.88	10.9604	406.9
133.43	12.2584	409.1
134	14.8704	411.3
134.57	9.4006	413.6
135.13	9.9296	416.1
135.71	11.8178	418.1
136.26	16.7232	420.3
136.81	21.3622	422.6
137.38	12.843	424.9
137.93	11.5282	427.2
138.48	13.2662	429.9
139.04	11.635	432.8
139.61	12.2492	435.6
140.17	9.6438	437.9
140.72	12.426	439.7
141.27	13.2366	442.2
141.82	12.4324	444.6
142.37	13.7142	446.9
142.92	14.2238	448.7
143.5	17.8794	451.0
144.1	19.8648	453.5
144.66	19.7994	456.6
145.21	22.8534	458.4
145.78	23.1714	460.4
146.33	25.4586	463.1
146.88	19.1552	465.3
147.46	19.4358	467.9
148.03	20.2466	470.3
148.58	23.267	472.9
149.15	17.8396	475.8
149.75	13.7842	478.5
150.33	16.7428	482.3
150.89	13.0274	485.0
151.44	11.1258	487.4
152	21.5796	489.7
152.56	22.7936	491.8
153.11	18.0188	493.7
153.67	19.6978	496.4
154.22	20.9016	498.7
154.8	12.3498	501.7
155.35	10.3708	503.8
155.9	17.3076	506.0
156.46	18.3234	508.9
157.01	19.6306	510.7
157.59	20.622	513.6
158.14	20.465	515.8
158.7	19.577	518.0
159.26	25.4128	520.2
159.81	17.6432	522.1
160.36	19.2298	524.5
160.91	19.2436	526.6
161.46	22.4348	528.9
162.01	15.9098	531.1
162.56	18.403	533.2
163.11	20.9914	535.6
163.68	20.3236	537.9
164.23	21.3032	540.1
164.78	19.433	542.4
165.35	18.6646	545.3
165.92	14.784	547.6
166.47	11.7498	550.2
167.02	11.4666	552.1
167.64	12.5224	555.1
168.29	11.685	557.5
168.89	14.9892	559.3
169.48	18.4376	561.9
170.07	21.0558	564.7
170.63	24.4202	567.1
171.18	19.974	569.6
171.73	24.3714	571.7
172.28	26.76	573.6
172.83	30.213	575.8
173.38	30.1696	578.4
173.93	20.8262	580.8
174.49	21.0098	583.3
175.06	22.259	585.2
175.62	24.0684	587.4
176.17	24.0102	589.9
176.72	16.9462	592.6
177.27	18.082	594.9
177.82	19.0368	597.1
178.39	16.818	599.5
178.94	21.02	602.2
179.49	26.334	604.3
180.05	24.5704	606.5
180.61	24.378	609.0
181.19	23.2056	611.5
181.77	23.6656	613.9
182.33	16.3312	616.1
182.89	22.3078	618.9
183.44	21.4218	621.2
184	21.628	623.3
184.57	17.8324	625.9
185.12	14.83	628.1
185.67	19.0376	630.9
186.22	19.378	633.1
186.78	18.9734	635.4
187.34	18.166	637.8
187.96	14.9746	640.5
188.56	16.9166	643.3
189.13	20.8702	645.4
189.75	23.073	648.3
190.33	21.6332	651.1
190.89	24.6068	653.3
191.44	21.1708	655.7
192	24.861	658.5
192.56	24.6306	660.7
193.11	28.221	663.4
193.66	24.4412	665.3
194.23	18.4876	668.0
194.82	22.8898	670.5
195.39	24.763	673.0
195.99	23.6174	675.6
196.55	28.2612	677.8
197.1	27.3872	680.1
197.65	26.6096	682.7
198.2	26.2012	685.3
198.75	24.2302	687.6
199.3	28.8192	690.2
199.89	33.4082	692.7
200.45	23.5894	695.2
201.01	23.675	698.4
201.56	21.3646	700.8
202.11	22.174	703.2
202.66	26.8724	705.6
203.22	23.41	707.7
203.81	23.9192	710.2
204.36	24.6236	712.8
204.91	25.8056	715.4
205.46	23.9766	717.7
206.01	28.869	720.1
206.59	23.0462	722.7
207.14	20.3668	725.4
207.7	25.1752	728.1
208.27	23.272	731.4
208.85	21.0164	734.0
209.44	23.3682	736.3
210.01	13.005	738.8
210.56	9.9026	742.8
211.11	15.5186	745.0
211.68	27.2312	747.6
212.24	29.5634	749.8
212.81	35.3464	752.6
213.39	27.823	755.3
213.94	27.6312	758.1
214.49	21.3268	760.4
215.05	19.466	763.0
215.61	24.8704	765.5
216.16	26.0906	768.1
216.71	30.4316	770.7
217.26	28.905	773.1
217.81	22.6294	775.9
218.36	20.93	778.9
218.91	25.7718	781.0
219.48	29.4632	783.8
220.09	23.4982	787.0
220.72	20.7018	789.7
221.31	24.3934	792.2
221.86	23.896	794.3
222.41	23.7844	796.9
223	22.3216	799.6
223.55	23.277	801.9
224.13	26.4068	804.3
224.73	24.599	806.9
225.28	25.1234	808.9
225.83	25.1904	811.2
226.39	27.4482	813.5
226.98	26.2394	815.7
227.55	22.677	818.2
228.11	25.9414	820.4
228.67	21.1678	822.7
229.22	26.2332	825.2
229.8	25.5206	827.8
230.35	22.1814	830.7
230.89	22.4468	833.3
231.44	21.7708	835.2
232	28.6754	837.5
232.55	27.8164	839.5
233.1	27.2796	841.9
233.65	40.2752	844.2
234.2	25.376	846.7
234.77	25.2772	849.1
235.33	27.185	851.5
235.91	28.3696	854.2
236.46	24.0566	856.1
237.01	17.0734	857.9
238.8	21.1374	866.3
240.58	23.7518	874.9
241.15	20.4704	878.3
241.72	24.4032	880.8
242.27	26.9874	883.4
242.82	21.5708	885.6
243.37	26.4304	887.6
243.92	27.0038	889.5
244.6	23.0348	892.9
245.29	24.4518	895.3
245.88	26.526	898.0
246.53	27.5236	901.1
247.19	22.999	903.8
247.78	24.2102	906.0
248.34	20.3998	908.2
248.91	22.3534	910.3
249.48	23.0336	912.8
250.08	24.391	915.4
250.66	25.5424	918.1
251.21	27.5694	921.4
251.78	28.1212	923.8
252.34	20.119	926.5
252.93	23.1098	928.6
253.52	24.3238	931.1
254.09	25.906	932.7
254.69	25.4726	935.1
255.25	28.3566	937.8
255.8	26.4296	940.2
256.35	26.3434	942.5
256.89	25.3832	944.9
257.44	26.3202	947.3
258	26.0872	949.7
258.56	22.989	951.6
259.11	15.92	954.1
259.73	23.84	956.7
260.35	19.5048	959.8
261.03	19.188	963.4
261.71	25.0174	966.6
262.3	28.329	968.8
262.85	25.8582	971.1
263.4	29.062	973.5
263.95	26.1262	975.7
264.5	22.6448	978.0
265.1	25.1536	980.6
265.7	24.585	982.8
266.26	24.192	985.6
266.83	26.132	988.0
267.43	26.3908	990.6
268.09	24.723	993.8
268.78	21.964	996.8
269.4	22.9896	999.3
269.95	26.3866	1001.7
270.5	24.2378	1004.1
271.05	24.6118	1006.7
271.6	27.2604	1009.0
272.17	40.1952	1011.2
272.72	25.304	1013.2
273.27	21.1316	1015.4
273.82	24.0418	1017.7
274.38	26.1436	1020.5
274.97	25.1156	1022.9
275.55	27.5116	1025.8
276.11	24.483	1028.1
276.68	23.0844	1030.7
277.23	23.9116	1033.2
277.8	25.179	1035.8
278.38	24.0658	1038.5
278.94	26.8876	1041.3
279.57	28.3592	1044.3
280.21	26.9408	1047.2
280.8	24.8916	1049.8
281.36	25.8836	1052.1
281.91	32.0668	1054.5
282.46	26.272	1056.9
283.03	27.4276	1059.4
283.62	28.583	1061.7
284.19	24.968	1064.6
284.75	26.4284	1067.2
285.31	31.1758	1069.5
285.91	24.3918	1071.6
286.51	20.5112	1073.8
287.06	20.7448	1076.9
287.61	22.0746	1079.0
288.16	23.987	1081.8
288.71	21.154	1084.1
289.27	20.6548	1087.0
289.82	29.2128	1089.2
290.38	27.7904	1091.4
290.94	33.6592	1093.9
291.51	28.089	1096.3
292.07	23.8326	1098.5
292.62	26.613	1100.8
293.2	23.2742	1103.3
293.75	26.4622	1105.4
294.3	27.3474	1107.6
294.85	28.3598	1110.4
295.4	25.166	1112.9
295.95	23.081	1114.8
296.5	27.178	1117.5
297.06	23.861	1120.3
297.63	29.8564	1122.6
298.22	29.0036	1125.1
298.84	34.4128	1127.7
299.53	34.0042	1130.6
300.19	23.843	1132.9
300.79	28.3408	1135.4
301.64	31.91	1138.9
302.46	27.4334	1142.2
303.01	25.1636	1145.0
303.56	26.8836	1147.5
304.13	25.6342	1150.4
304.73	26.596	1152.7
305.31	26.2034	1155.2
305.87	26.8886	1157.7
306.46	27.0428	1159.8
307.15	20.3522	1163.0
307.81	19.9416	1165.5
308.35	23.913	1168.0
308.9	23.213	1170.2
309.45	20.8306	1172.6
310	25.8634	1175.5
310.56	26.0446	1178.1
311.11	26.6062	1180.3
311.67	25.6298	1182.9
312.22	28.477	1185.1
312.8	23.5102	1187.7
313.36	25.9088	1190.4
313.91	27.9242	1192.9
314.46	26.0332	1195.3
315.01	25.0794	1197.5
315.58	22.3414	1199.4
316.13	22.573	1201.8
316.68	24.572	1204.3
317.23	22.3944	1206.5
317.78	25.0814	1208.4
318.33	26.2674	1211.0
318.89	21.8874	1213.6
319.49	21.8124	1216.1
320.15	24.2596	1219.0
320.76	24.2336	1222.0
321.31	20.6816	1224.2
321.86	26.376	1226.8
322.41	24.0342	1229.3
322.98	26.6238	1232.0
323.54	25.9434	1234.6
324.11	25.2958	1237.6
324.66	26.672	1240.2
325.21	26.473	1242.9
325.79	25.7472	1246.0
326.37	23.6798	1248.5
326.94	30.1036	1250.9
327.52	29.3046	1253.5
328.11	27.0642	1256.1
328.66	27.1724	1258.3
329.21	21.2818	1261.1
329.78	26.584	1263.4
330.36	24.5494	1265.3
330.97	23.5628	1267.8
331.57	25.3966	1270.7
332.14	25.7608	1272.8
332.71	26.4372	1275.2
333.26	23.8028	1277.7
333.81	25.1796	1280.5
334.43	26.845	1283.4
335.13	28.695	1285.9
335.78	29.432	1289.1
336.33	28.4684	1291.4
336.89	30.8526	1294.0
337.44	33.4318	1296.0
337.99	27.345	1298.4
338.55	24.1108	1301.9
339.11	32.1898	1304.2
339.66	25.147	1307.0
340.22	33.3898	1309.3
340.81	26.1584	1311.3
341.36	29.756	1314.2
341.91	29.323	1316.6
342.46	22.637	1319.1
343.01	24.136	1321.6
343.56	22.4868	1323.9
344.11	21.988	1326.3
344.69	24.0198	1330.2
346.57	25.0286	1340.0
353.73	29.2952	1375.8
359.55	27.6456	1404.4
360.05	22.0892	1406.8
360.56	21.455	1409.1
361.11	24.3194	1411.8
361.65	22.6972	1414.3
362.15	31.923	1416.8
362.65	26.2942	1419.7
363.15	21.5948	1422.5
363.65	27.783	1425.0
364.15	32.1676	1426.7
364.67	27.48	1429.2
365.22	17.3034	1431.7
365.75	13.6698	1434.9
366.25	13.4786	1437.0
366.75	16.1806	1439.5
367.25	15.0172	1442.9
367.75	17.9432	1445.4
368.25	19.201	1447.9
368.78	17.4432	1450.9
369.33	17.301	1453.5
369.85	18.0848	1456.0
370.35	16.3566	1458.1
370.88	19.9944	1460.6
371.43	22.528	1463.5
371.95	24.401	1466.4
372.45	21.9232	1468.5
372.95	26.9184	1470.6
373.45	26.5832	1472.8
374	25.8034	1475.1
374.55	24.9118	1477.6
375.05	17.9826	1479.8
375.55	17.7302	1482.1
376.05	20.0454	1484.5
376.56	20.7424	1486.7
377.11	20.599	1489.6
377.65	19.5408	1492.0
378.15	24.4602	1494.1
378.65	19.7482	1496.6
379.15	19.6698	1498.9
379.65	21.4462	1501.3
380.15	20.8944	1503.5
380.67	22.526	1506.3
381.22	27.9572	1509.3
381.75	24.5316	1511.7
382.25	17.655	1514.3
382.75	22.2498	1516.4
383.25	15.714	1518.7
383.75	16.4074	1521.0
384.25	15.7624	1523.4
384.78	14.7956	1526.3
385.33	13.3014	1528.7
385.85	15.5684	1531.4
386.35	20.0244	1534.3
386.85	27.088	1536.4
387.35	26.6084	1539.2
389.05	21.664	1547.2
391.55	16.5848	1559.7
392.85	15.2212	1565.4
393.36	15.087	1567.4
395.51	19.9822	1578.0
397.65	16.9722	1588.2
398.15	17.5824	1590.4
398.65	17.9088	1593.6
399.15	17.4096	1596.5
399.67	18.345	1599.0
400.22	21.4072	1601.5
400.75	21.3048	1604.0
401.25	24.7742	1606.4
401.75	23.8096	1609.1
402.25	17.618	1612.2
402.75	21.1956	1614.3
403.25	25.1936	1616.2
403.75	25.2216	1618.7
404.25	24.4748	1621.0
404.78	19.672	1623.4
405.33	13.8872	1626.1
405.85	16.4816	1629.3
406.35	23.3688	1631.8
406.85	27.8036	1634.1
407.35	25.4312	1636.3
407.85	22.469	1638.5
408.35	24.1946	1641.8
408.89	35.9002	1644.5
409.44	23.6028	1647.4
409.95	20.3202	1650.0
410.45	17.6214	1652.8
410.95	22.4784	1655.4
411.45	21.6768	1658.2
411.95	24.3302	1660.5
412.45	22.7508	1662.9
413	22.3882	1665.5
413.55	20.109	1668.1
414.05	13.6056	1670.5
414.55	15.2062	1672.9
415.05	21.3448	1675.2
415.55	21.548	1677.7
416.05	20.3866	1679.8
416.56	23.8002	1682.9
417.11	23.6302	1686.0
417.65	22.0152	1688.7
418.15	15.8268	1691.0
418.65	19.3544	1693.4
419.15	25.452	1696.5
419.65	22.9028	1699.1
420.15	22.9184	1701.7
420.67	19.8568	1704.1
421.22	23.1172	1706.6
421.75	21.9628	1709.4
422.25	20.191	1712.0
422.79	22.8908	1714.5
423.34	31.802	1717.3
423.85	20.6448	1720.0
424.35	22.9548	1722.3
424.89	26.0622	1724.8
425.44	27.9874	1727.4
425.95	27.5364	1730.7
426.45	27.0686	1733.2
426.95	24.2614	1736.5
427.45	22.4642	1739.0
427.95	22.001	1741.1
428.45	26.0662	1743.2
429	24.5778	1745.8
429.55	22.6564	1748.4
430.05	19.8046	1751.4
430.55	22.506	1754.4
431.05	20.851	1756.7
431.55	23.2802	1759.6
432.05	23.1896	1762.3
432.56	19.4076	1765.1
433.11	20.2512	1768.5
433.65	19.3236	1771.3
434.15	22.2124	1774.4
434.65	21.7882	1777.5
435.15	23.4436	1780.9
435.65	26.3964	1782.8
436.15	19.854	1785.4
436.67	27.2314	1787.9
437.22	21.2014	1790.5
437.75	23.4118	1792.7
438.25	25.5618	1795.2
438.75	21.3066	1797.7
439.25	20.9826	1800.1
439.75	22.4272	1803.3
440.25	24.6034	1805.7
440.78	21.8192	1808.4
441.33	18.401	1810.7
441.85	16.6974	1813.2
442.35	15.4734	1815.5
442.89	18.8918	1818.2
443.44	16.7186	1820.8
443.95	15.9538	1822.7
444.45	21.964	1825.1
445	15.4954	1827.9
445.55	16.3146	1830.7
446.05	15.7784	1833.1
446.55	16.7596	1836.1
447.05	23.5628	1838.5
447.55	27.3126	1840.7
448.05	21.3114	1843.4
448.56	23.5958	1846.1
449.11	18.2354	1848.9
449.66	15.5662	1851.5
450.21	18.991	1854.2
450.75	19.0616	1856.6
451.25	22.7682	1859.3
451.75	24.7322	1862.7
452.25	24.1138	1865.1
452.75	24.045	1867.7
453.25	30.489	1869.5
453.8	32.171	1872.2
454.35	27.6482	1874.9
454.85	31.2614	1877.5
455.35	28.6348	1879.9
455.85	28.5554	1882.2
456.35	25.2922	1884.5
456.85	19.0638	1886.6
457.36	24.8408	1888.4
457.91	21.6054	1890.7
458.45	25.2764	1893.6
458.95	22.0686	1896.1
459.45	23.2702	1898.8
460.29	23.2246	1902.8
461.64	19.846	1908.7
462.65	20.3622	1912.9
463.15	19.5234	1914.9
463.65	21.6964	1917.8
464.18	24.4024	1920.7
464.73	20.507	1923.5
465.25	22.5922	1925.8
465.75	23.1832	1928.2
466.25	19.4994	1930.4
466.75	17.1374	1933.0
467.25	24.4856	1935.4
467.75	20.2478	1937.6
468.25	20.0186	1940.3
468.91	26.5434	1943.7
469.61	26.3948	1947.2
470.15	20.2828	1949.3
470.65	22.7982	1951.8
471.15	21.8126	1954.2
471.65	19.7228	1956.6
472.2	22.624	1959.2
472.78	24.4102	1961.8
473.43	22.2054	1964.9
474.05	16.9826	1968.4
474.55	23.4106	1970.7
475.05	24.5526	1972.8
476.36	20.3652	1979.6
478.21	14.6726	1988.8
479.25	17.9386	1993.2
479.75	16.0188	1995.5
480.25	21.161	1997.9
480.75	36.1688	2001.4
481.25	23.0542	2004.0
481.75	19.8446	2006.4
482.28	14.9214	2009.3
482.83	22.0084	2012.0
483.35	22.626	2015.6
483.85	14.8904	2018.1
484.35	17.0804	2020.6
484.85	20.6686	2023.3
485.35	19.256	2026.9
485.85	19.555	2029.5
486.35	19.35	2031.9
486.89	17.0942	2034.6
487.44	21.269	2037.2
487.95	22.1246	2039.5
488.45	23.2578	2041.7
488.95	28.3678	2044.1
489.45	27.5292	2046.7
489.95	28.4534	2050.0
490.45	24.8482	2052.7
491	26.0806	2055.5
491.55	22.7154	2058.1
492.05	19.4526	2060.4
492.55	21.4644	2062.6
493.05	26.9002	2065.1
493.55	17.391	2067.5
494.05	20.2032	2070.1
495.4	16.4296	2076.7
496.75	20.8908	2083.5
497.25	19.9102	2086.1
497.76	15.9576	2088.7
498.31	15.1342	2091.4
498.85	21.3146	2094.8
499.35	18.2932	2097.1
499.88	20.5292	2099.9
500.43	26.2444	2102.5
500.95	24.1918	2105.2
501.45	23.1276	2107.4
501.95	20.214	2110.0
502.45	24.9192	2112.5
502.95	19.0406	2115.0
503.45	18.3358	2118.1
503.95	19.3366	2120.6
504.61	23.796	2124.8
505.31	23.8632	2128.8
505.85	25.0112	2131.7
506.35	21.0214	2134.4
506.85	22.003	2137.3
507.4	24.6858	2140.1
507.95	21.3146	2143.1
508.45	29.2092	2145.5
508.95	30.2218	2148.2
509.45	23.5104	2150.7
510	22.4316	2153.5
510.55	22.8672	2156.0
511.06	27.3718	2158.7
511.61	25.3732	2161.8
512.15	23.4068	2164.3
512.65	29.3022	2166.7
513.15	27.1256	2169.2
513.65	24.0834	2171.8
514.15	27.575	2174.6
514.65	27.0588	2177.1
515.15	31.141	2179.8
515.65	28.499	2182.3
516.15	30.2342	2185.0
516.67	30.612	2187.5
517.22	24.5812	2190.4
517.75	24.8138	2193.2
518.25	17.8632	2195.5
518.79	21.14	2198.3
519.39	33.126	2200.7
519.95	29.8396	2203.5
520.45	24.6356	2206.0
520.95	19.6696	2209.0
521.45	23.4518	2211.5
521.95	26.4282	2214.1
522.45	28.7402	2216.5
523	30.5184	2219.1
523.55	25.5496	2221.8
524.05	26.8032	2224.2
524.55	31.432	2226.7
525.05	24.0894	2229.4
525.55	27.1596	2231.8
526.05	27.7766	2234.4
526.55	27.7994	2237.1
527.05	32.0398	2239.9
527.55	25.0852	2242.3
528.05	24.5502	2244.4
528.56	27.0338	2246.9
529.11	24.6022	2249.2
529.65	23.551	2252.2
530.15	26.7952	2254.8
530.65	27.2332	2257.4
531.15	27.7386	2260.0
531.65	26.8558	2262.9
532.15	29.728	2265.4
532.67	27.5966	2268.3
533.22	25.1006	2271.0
533.75	31.5892	2273.6
534.25	25.247	2276.2
536.35	32.1302	2287.1
540.85	28.4364	2309.8
543.75	27.291	2324.5
544.25	18.7576	2327.3
544.75	22.8906	2329.7
545.25	26.3394	2331.9
546.63	24.8176	2338.9
548.23	26.0494	2347.6
549	28.271	2351.3
549.55	22.3304	2354.8
550.1	27.095	2357.7
550.65	27.3902	2360.7
551.3	33.2512	2363.9
552.55	44.0796	2370.5
553.65	30.5044	2375.7
554.15	23.5942	2378.3
554.67	28.7344	2381.0
555.22	26.5432	2383.9
555.75	28.0664	2386.2
556.25	31.3364	2388.8
557.72	30.1056	2396.2
559.47	27.9102	2404.9
560.25	24.791	2409.4
560.75	21.0622	2411.8
561.25	25.036	2414.9
561.75	23.9134	2417.6
562.29	24.4664	2420.1
562.84	24.8632	2422.7
563.35	21.3286	2425.5
563.85	18.8556	2428.2
564.35	19.561	2430.8
564.85	24.8704	2433.5
565.35	28.4214	2436.3
565.85	27.2182	2438.9
566.35	22.1778	2442.0
566.89	24.0202	2444.7
567.44	24.8644	2447.8
567.95	27.2742	2450.4
568.45	22.8884	2453.3
568.95	23.339	2455.8
569.45	21.2294	2458.7
569.95	24.5784	2461.3
570.45	26.0054	2463.8
571	33.1874	2466.9
571.6	24.6034	2469.8
572.15	21.9668	2472.6
572.65	23.957	2475.7
573.15	29.8028	2478.3
573.65	26.4172	2480.4
574.15	26.9816	2483.2
574.78	25.4386	2486.3
575.93	26.4664	2491.8
576.95	27.8298	2498.1
577.48	30.8008	2501.9
578.03	28.5014	2504.7
578.55	26.5262	2507.7
579.05	28.6802	2510.2
579.55	28.7032	2512.6
580.05	28.1402	2515.3
580.57	32.6692	2518.0
581.17	31.838	2521.2
581.75	27.0004	2524.8
582.25	23.2724	2526.9
582.75	25.3598	2529.2
583.25	33.1942	2532.6
583.75	26.39	2535.4
584.25	26.8126	2538.2
584.9	29.3006	2542.1
585.65	29.2064	2546.5
586.25	22.5618	2549.9
586.75	27.331	2552.4
587.25	26.209	2555.0
587.75	26.4372	2558.2
588.25	24.1982	2560.7
588.78	24.9932	2563.4
589.33	32.7816	2566.4
589.85	30.2402	2569.2
590.35	29.3122	2571.8
590.89	34.2618	2575.2
591.44	29.7958	2578.2
591.95	28.2372	2581.2
592.45	30.914	2583.9
592.95	28.1022	2586.5
593.45	25.36	2588.9
593.95	30.7758	2591.6
594.45	24.684	2594.3
595	31.6086	2597.1
595.55	36.276	2600.2
596.05	31.4438	2602.7
596.55	34.5126	2605.5
597.05	29.265	2607.9
597.55	33.071	2610.7
598.05	27.6088	2613.0
598.55	31.9396	2615.5
599.05	35.9036	2618.2
599.55	34.8964	2620.9
600.1	37.027	2623.9
600.65	33.9258	2626.8
601.15	32.777	2629.4
601.65	35.164	2632.0
602.15	30.2976	2634.6
602.67	39.359	2637.4
603.22	35.0332	2640.2
603.75	36.0502	2643.0
604.25	29.289	2645.8
604.75	32.5278	2648.8
605.3	30.0566	2651.6
605.85	34.2876	2654.4
606.35	33.9372	2657.5
606.85	28.053	2659.8
607.35	29.6912	2662.5
607.85	32.0634	2665.8
608.35	27.7306	2668.5
608.85	30.1444	2670.9
609.35	38.784	2673.6
609.85	33.9326	2676.0
610.35	28.3392	2679.1
610.89	29.2368	2681.5
611.46	35.143	2685.1
612.02	31.5764	2688.4
612.56	29.1876	2691.7
613.11	29.8118	2694.6
613.65	35.7074	2697.5
614.15	31.5154	2699.8
614.65	31.065	2702.2
615.15	25.049	2704.3
615.65	21.0034	2707.4
616.15	27.833	2710.0
616.7	24.3762	2712.9
617.35	30.0084	2717.4
618.12	25.0548	2722.6
618.87	26.498	2727.5
619.45	29.1864	2730.8
619.95	28.1272	2734.1
620.45	23.7536	2736.9
620.95	31.0038	2740.0
621.45	33.8944	2742.6
621.95	31.262	2745.3
622.49	27.1106	2748.1
623.09	25.632	2751.5
623.65	23.6668	2754.4
624.15	24.5886	2756.8
624.67	22.856	2759.4
625.22	25.7248	2762.7
625.75	28.1238	2765.4
626.25	31.267	2768.3
626.78	30.9426	2771.2
627.33	30.2626	2774.2
627.85	27.6846	2777.1
628.35	26.8062	2780.0
628.91	31.303	2782.4
629.51	35.0938	2785.5
630.05	40.585	2788.4
630.6	33.9274	2791.1
631.15	28.4976	2793.8
631.65	30.4568	2796.4
632.15	31.2362	2799.1
632.65	26.2302	2801.8
633.18	24.7032	2804.4
633.73	25.634	2807.4
634.25	26.7826	2810.0
635.23	36.5316	2814.9
636.33	22.2112	2820.4
637.03	24.9868	2824.0
637.68	29.5002	2827.7
638.25	24.5584	2830.9
638.75	24.9292	2834.0
639.25	26.4378	2836.6
639.75	30.9414	2839.5
640.25	23.3728	2841.9
640.75	26.127	2844.5
641.27	24.1272	2847.3
641.82	36.2396	2850.6
642.35	30.2554	2853.6
642.85	34.8348	2856.2
643.35	34.0906	2859.0
643.85	41.3606	2861.6
644.35	39.3442	2864.4
644.89	38.8438	2867.2
645.44	36.8546	2870.1
645.95	38.3498	2873.0
646.45	39.7858	2875.6
646.95	30.8532	2878.2
647.45	25.2962	2881.1
647.95	27.7716	2883.5
648.45	30.3738	2886.3
649	28.983	2889.8
649.55	30.1716	2892.9
650.1	34.9122	2895.6
650.67	37.2666	2899.2
651.25	35.0816	2902.3
651.88	34.813	2905.6
652.45	36.0578	2908.6
652.95	32.9348	2911.2
653.45	35.1556	2913.6
653.95	28.6448	2916.2
654.45	29.6188	2919.2
655.03	29.1576	2922.1
655.63	33.6422	2925.2
656.15	33.5762	2927.7
656.65	32.9948	2930.6
657.15	33.1994	2933.2
657.65	33.5178	2935.8
658.19	36.8704	2938.9
658.79	29.3638	2941.9
659.35	32.3314	2944.8
659.85	23.2096	2947.6
660.35	17.8508	2950.7
660.93	24.6544	2953.8
661.53	26.8426	2957.3
662.05	33.1358	2960.5
662.56	26.6196	2963.1
663.11	35.1796	2966.4
663.65	34.6266	2969.3
664.15	31.4472	2972.3
664.65	33.705	2975.1
665.15	40.6122	2978.2
665.65	36.7356	2980.9
666.15	31.1836	2983.5
666.7	25.269	2986.2
667.25	27.3626	2988.8
667.75	34.7526	2991.6
668.25	39.7798	2994.3
668.75	34.3292	2997.1
669.25	34.2184	2999.8
669.76	21.8724	3002.6
670.31	25.8212	3005.7
670.88	35.4672	3008.7
671.43	34.9306	3011.7
671.95	31.0008	3014.3
672.45	33.7612	3017.2
672.95	28.2912	3020.0
673.45	35.2726	3022.6
673.98	32.2248	3025.3
674.53	32.235	3028.3
675.05	44.0706	3031.3
675.55	31.6536	3034.0
676.05	29.6268	3036.4
676.57	22.0424	3039.0
677.12	27.4632	3041.9
677.65	29.0792	3045.1
678.15	29.9928	3047.9
678.89	31.8828	3052.0
679.64	35.2282	3055.8
680.25	37.6946	3059.8
680.95	33.3872	3064.5
681.55	33.0678	3067.6
682.05	32.101	3070.7
682.55	35.3136	3074.3
683.05	35.0476	3077.6
683.55	31.209	3080.7
684.09	36.8118	3083.5
684.64	35.9024	3087.5
685.15	37.583	3090.6
685.65	42.6132	3093.5
686.15	39.0822	3096.8
686.68	32.4638	3099.8
687.23	38.7874	3102.9
687.75	34.4842	3106.8
688.25	37.732	3110.3
688.79	45.5368	3113.1
689.34	44.0162	3116.5
689.85	33.9046	3119.4
690.35	36.8612	3122.2
690.85	33.6228	3124.9
691.35	28.8018	3128.2
691.85	29.263	3131.3
692.35	23.4162	3133.8
692.9	31.3944	3137.3
693.49	49.5496	3140.6
694.11	29.333	3144.6
694.72	37.4958	3147.5
695.26	35.79	3151.2
695.81	35.3292	3154.4
696.35	38.955	3158.1
697.36	37.2966	3163.9
698.71	40.6192	3171.4
699.58	39.827	3176.2
700.2	41.102	3179.5
700.87	34.197	3182.9
701.45	45.1424	3185.9
701.95	41.4984	3188.3
702.45	45.101	3191.1
703	45.4696	3194.6
703.55	34.8286	3197.1
704.05	33.9782	3199.4
704.56	41.498	3202.0
705.11	42.696	3205.6
705.7	31.8714	3209.2
706.25	31.986	3212.2
707.15	35.309	3218.9
708.15	32.3344	3225.6
708.83	30.3878	3229.3
709.43	23.3602	3233.5
709.95	24.7828	3236.4
710.45	45.7926	3239.0
710.96	43.469	3242.1
711.51	38.756	3245.2
712.05	41.2442	3247.6
712.58	39.106	3250.6
713.13	28.115	3254.2
713.65	30.2312	3257.0
714.15	37.9984	3259.7
714.67	31.7846	3262.7
715.22	35.5838	3266.1
715.75	35.4388	3268.9
716.25	26.9118	3271.9
716.75	36.5696	3275.1
717.25	37.8432	3278.1
718.18	29.9892	3283.6
719.18	27.1584	3289.2
719.75	28.6234	3292.0
720.25	29.8356	3295.0
720.75	32.8746	3297.8
721.25	33.865	3301.1
721.75	37.765	3303.8
722.25	35.444	3306.8
722.85	38.3264	3310.6
723.75	33.016	3316.4
724.59	37.8488	3321.1
725.14	30.69	3324.6
725.69	27.5376	3327.7
726.24	30.2968	3330.6
726.75	41.7218	3333.5
727.25	38.5818	3336.2
727.75	37.8288	3338.9
728.25	38.743	3342.1
728.83	44.424	3345.8
729.43	35.3436	3350.0
729.99	40.4604	3353.0
730.56	36.3608	3356.0
731.12	23.2424	3359.5
732.23	28.6368	3365.8
733.48	35.2284	3373.6
734.25	36.8378	3378.0
734.98	35.6918	3382.1
735.63	36.7066	3385.9
736.15	42.4566	3388.7
736.67	34.203	3391.8
737.22	33.0462	3394.9
737.75	34.7206	3398.0
738.25	35.3418	3401.1
738.75	32.2574	3404.2
739.25	38.4534	3407.2
739.75	33.0206	3410.3
740.33	34.705	3414.2
741.53	38.106	3421.6
744.65	38.2754	3440.3
747.23	34.4662	3456.1
747.91	34.6926	3459.9
748.53	36.0688	3463.6
749.1	30.4102	3467.1
749.81	32.18	3471.4
750.51	39.4932	3476.1
751.05	36.8164	3479.2
751.6	42.6388	3482.2
752.15	40.219	3485.2
752.67	38.7894	3488.0
753.32	34.4692	3492.4
754.19	31.0346	3497.5
755.1	31.778	3502.8
755.96	37.0326	3508.2
756.65	37.1034	3512.1
757.15	36.2874	3514.7
757.66	36.2364	3517.7
758.21	36.7288	3520.6
758.75	33.5488	3523.9
759.25	32.8718	3526.7
759.75	30.2364	3529.7
760.25	34.5826	3533.3
760.8	31.1552	3536.7
761.6	26.5788	3541.5
762.35	27.8042	3545.7
762.94	40.8526	3549.3
763.63	38.9964	3553.6
764.24	37.3614	3557.4
764.75	37.272	3560.6
765.25	39.323	3563.3
765.85	38.8022	3567.1
766.5	46.1492	3570.9
767.05	36.6808	3574.1
767.55	38.4324	3576.5
768.05	39.5426	3579.2
768.95	41.0722	3584.2
770.45	39.0526	3593.3
771.57	37.1982	3599.6
772.12	31.0572	3602.8
772.74	38.7422	3606.7
773.45	38.1754	3611.1
774.16	53.7316	3616.4
774.78	31.9706	3620.0
775.43	32.5804	3623.7
776.05	27.9164	3627.6
776.56	31.066	3630.5
777.11	33.7442	3633.8
777.67	35.5046	3637.1
778.26	41.0206	3641.0
778.91	41.9672	3644.7
779.57	35.7292	3648.3
780.15	34.1208	3652.0
780.67	34.69	3655.2
781.22	38.6182	3658.9
781.75	40.333	3662.7
782.26	39.2612	3665.5
782.86	35.416	3669.0
783.45	31.591	3672.2
783.97	36.5634	3675.4
784.53	34.5556	3678.7
785.11	26.229	3681.9
785.65	26.4182	3684.9
786.15	33.0784	3687.5
786.67	34.3588	3690.3
787.22	28.4708	3693.5
787.82	37.5262	3696.6
788.57	39.2696	3701.3
789.26	39.768	3705.6
789.82	33.2042	3709.2
790.41	27.0704	3712.3
791.03	35.8448	3716.4
791.71	43.533	3720.3
792.35	38.3044	3724.3
792.92	41.8974	3727.7
793.45	40.1644	3731.0
793.99	37.0424	3734.4
794.55	33.9836	3738.1
795.11	34.4464	3741.3
795.68	30.5184	3744.5
796.23	28.7292	3747.7
796.79	31.0222	3750.9
797.4	29.5308	3754.4
798.05	35.8708	3758.5
798.64	37.536	3762.4
799.15	40.9106	3765.4
799.68	41.2716	3768.5
800.32	42.5916	3772.2
801.04	42.5336	3776.5
801.87	41.8758	3781.8
802.92	39.9356	3787.9
803.75	36.5788	3792.5
804.25	39.7042	3795.4
804.78	37.4088	3798.3
805.33	35.2826	3802.3
805.85	32.9704	3805.2
806.35	31.7698	3807.8
806.89	35.9094	3810.9
807.54	33.054	3814.7
808.6	31.457	3821.8
809.55	28.9532	3827.9
810.05	34.6282	3830.8
810.56	35.5168	3833.6
811.11	31.2012	3836.9
811.65	29.811	3840.2
812.6	32.7908	3846.7
813.55	37.3682	3852.5
814.19	37.4822	3856.3
815.04	39.3704	3861.5
815.75	38.8412	3865.4
816.25	45.411	3868.3
816.78	40.9944	3871.5
817.33	42.5328	3874.9
817.87	40.8098	3878.1
818.42	39.9154	3881.3
818.95	35.0378	3885.1
819.45	37.1698	3888.2
819.95	37.276	3891.2
820.45	40.837	3894.4
821	37.772	3898.2
821.55	36.0956	3901.3
822.05	41.9966	3904.2
822.99	31.8628	3910.1
824.63	35.1262	3920.2
825.84	35.188	3928.1
826.43	33.473	3931.5
827.13	26.6394	3935.4
827.75	30.9796	3939.5
828.25	42.5174	3942.6
828.78	37.2898	3946.1
829.33	41.4044	3949.5
829.85	39.6898	3952.6
830.55	37.6306	3957.5
831.25	39.2794	3962.6
831.77	33.1854	3965.7
832.32	28.6396	3969.1
832.89	36.5938	3972.3
833.44	39.0976	3975.6
833.95	38.9526	3979.1
834.45	37.8832	3982.1
835	34.46	3985.6
835.57	40.1598	3989.2
836.22	37.4878	3993.6
836.95	36.4514	3998.1
837.8	29.8614	4003.1
838.59	31.9762	4007.9
839.19	29.9078	4011.4
839.84	35.9732	4015.4
840.55	33.2314	4020.2
841.22	30.6876	4025.1
842.01	34.357	4030.3
842.84	39.2078	4035.6
843.79	36.7398	4041.3
844.7	36.7132	4046.8
845.26	35.1088	4050.1
846.15	33.421	4055.9
847.56	32.0098	4064.9
848.64	30.1788	4071.8
849.22	31.7494	4075.4
849.86	35.6232	4079.7
850.55	33.8122	4084.3
851.19	26.223	4088.6
851.77	33.027	4092.4
852.32	37.0842	4095.8
852.95	40.58	4099.7
853.55	37.125	4103.3
854.05	38.098	4106.2
854.6	32.6044	4110.0
855.35	33.822	4114.6
856.05	32.868	4119.3
856.73	37.2722	4123.6
857.72	36.9462	4130.1
858.54	37.6912	4135.8
859.05	45.8574	4138.9
859.58	39.6698	4142.4
860.18	38.7534	4146.3
860.78	34.243	4150.0
861.37	31.5966	4153.7
861.94	28.1602	4157.1
862.45	25.2556	4160.4
863	35.921	4163.6
863.55	31.5536	4166.8
864.07	33.6232	4169.7
864.62	32.4632	4173.1
865.25	38.6196	4177.0
865.88	37.1366	4180.9
866.53	38.245	4185.0
867.15	32.632	4188.8
867.65	22.7142	4192.2
868.15	33.7534	4195.1
868.67	28.091	4198.4
869.22	26.7604	4201.9
869.75	26.9702	4205.3
870.28	35.7292	4208.4
870.83	37.688	4211.9
871.38	38.2038	4215.4
871.93	40.3862	4218.8
872.45	38.138	4221.9
873	36.4806	4225.1
873.55	36.444	4228.6
874.07	39.7446	4232.1
874.64	36.5244	4235.5
875.22	36.3318	4239.2
875.75	37.0242	4242.1
876.25	32.5194	4245.4
876.84	37.7062	4249.1
877.5	36.2562	4254.2
878.16	41.5136	4258.3
878.95	51.2014	4263.5
879.65	50.57	4268.2
880.15	43.382	4271.4
880.67	41.8486	4274.2
881.22	49.0856	4277.8
881.76	50.1612	4281.2
882.43	45.081	4285.5
883.17	43.7448	4290.3
883.79	38.9902	4294.0
884.34	47.4126	4297.6
884.89	41.4092	4300.7
885.44	37.3274	4303.9
885.95	43.6246	4307.1
886.45	41.9186	4310.1
886.96	42.1312	4313.7
887.51	40.9798	4317.1
888.05	39.5958	4320.5
888.55	41.3718	4323.2
889.1	42.7898	4327.6
889.65	46.6352	4331.2
890.4	41.8552	4335.8
892.15	44.2804	4346.5
893.73	42.6466	4357.6
894.33	40.0728	4361.1
894.89	42.4558	4364.6
895.44	46.3818	4368.1
896	47.9018	4371.4
896.6	43.3506	4375.4
897.16	37.133	4379.4
897.71	39.1434	4382.3
898.25	46.0748	4385.8
898.78	41.4918	4389.1
899.93	43.0504	4396.5
901.06	38.1886	4403.9
901.61	27.8358	4407.6
902.15	42.5468	4411.2
902.67	45.2378	4414.2
903.24	42.9278	4417.8
903.84	41.1548	4421.6
904.59	49.8688	4426.1
905.46	43.318	4431.8
906.14	40.1438	4436.4
906.7	40.6716	4439.9
907.25	49.6656	4443.4
907.77	58.7544	4446.5
908.32	49.7726	4450.1
908.89	46.5976	4453.6
909.44	41.2518	4456.5
909.95	40.8022	4459.9
910.48	35.1446	4463.5
911.03	25.8664	4467.1
911.59	37.7822	4470.6
912.46	44.2896	4476.2
913.77	42.5944	4484.7
914.8	38.8326	4490.8
915.35	40.0394	4494.9
915.85	43.5536	4498.2
916.36	41.3056	4501.7
917.06	43.151	4506.4
917.9	44.3098	4512.1
918.56	42.1196	4516.2
919.11	33.5224	4520.1
919.65	37.251	4523.2
920.15	37.2976	4526.3
920.69	35.9912	4530.3
921.24	36.8326	4533.5
921.81	33.7756	4537.1
922.47	36.095	4541.3
923.11	30.0262	4545.9
923.65	33.4454	4549.2
924.23	33.8006	4553.6
924.83	38.7822	4557.6
925.35	40.55	4561.3
925.87	43.204	4564.1
926.42	37.5216	4567.8
926.95	42.4646	4570.9
927.45	46.325	4574.3
927.96	42.1764	4577.9
928.52	46.797	4581.9
929.11	43.0558	4585.5
929.65	41.0106	4588.7
930.18	49.288	4592.1
930.73	46.3524	4595.6
931.34	48.609	4599.8
931.99	46.2584	4603.8
932.62	40.299	4608.3
933.22	43.6168	4612.2
933.75	44.8808	4615.6
934.7	42.244	4622.0
935.65	51.4378	4628.4
936.2	47.3702	4631.9
936.79	42.8962	4635.8
937.39	34.6696	4639.7
937.97	35.145	4643.2
938.76	39.21	4648.1
939.73	41.711	4654.6
940.44	37.8006	4659.4
941	37.9566	4663.4
941.61	37.2456	4667.0
942.25	36.9806	4671.6
942.88	43.2394	4675.1
943.53	39.5174	4678.7
944.19	40.4216	4682.7
944.78	38.7392	4686.4
945.33	40.1122	4689.9
945.85	38.1202	4693.3
946.35	38.7468	4696.8
946.94	39.6712	4701.1
947.59	45.0118	4705.9
948.25	45.9338	4710.3
948.89	42.9224	4714.9
949.49	41.682	4718.6
950.1	38.3902	4721.7
950.73	40.8206	4725.4
951.38	40.6146	4729.5
952	40.2632	4734.0
952.6	45.4242	4738.0
953.15	40.9814	4741.9
953.65	36.8966	4745.2
954.15	35.7598	4748.4
954.71	43.1376	4752.3
955.31	41.4796	4756.7
955.92	42.2768	4760.8
956.53	44.192	4764.6
957.11	44.8152	4768.3
957.65	45.627	4771.8
958.17	47.1388	4775.3
959.29	45.3574	4783.6
960.77	38.1146	4793.8
961.65	43.0518	4799.9
962.15	35.8968	4802.6
962.96	39.4054	4807.9
964.71	44.0214	4819.5
966.15	45.6978	4829.1
966.69	44.6478	4832.5
967.25	34.1136	4835.9
967.85	40.0236	4839.9
968.46	40.626	4843.6
969.02	44.4118	4847.4
969.65	42.625	4851.8
970.35	38.932	4856.2
970.96	37.5544	4859.9
971.51	32.2262	4863.8
972.05	43.732	4867.2
972.59	42.7112	4870.8
973.21	35.4182	4875.1
973.82	39.9528	4879.3
974.37	39.0234	4882.7
974.92	39.7588	4886.1
975.46	33.2678	4890.2
976.01	38.8064	4893.7
976.8	49.2788	4898.9
977.55	62.7584	4903.6
978.05	41.6694	4907.2
978.59	45.344	4910.9
979.19	40.8544	4914.7
979.75	42.9384	4918.3
980.3	38.1578	4922.2
981.01	41.5492	4926.9
981.81	37.387	4931.8
982.45	35.9892	4936.1
983.04	33.0642	4940.0
983.68	40.0092	4944.5
984.24	41.478	4947.8
984.75	35.3892	4950.8
985.3	35.276	4954.0
986.08	36.1178	4959.8
986.87	43.1798	4965.2
987.44	39.2988	4969.2
987.95	45.5912	4972.9
988.45	42.1846	4976.7
989.01	41.0786	4980.2
989.82	22.0706	4986.2
990.81	36.4384	4992.9
991.58	44.5378	4998.2
992.26	35.0692	5002.6
992.98	36.7842	5007.4
993.55	36.1566	5011.8
994.12	29.9042	5016.1
994.78	42.4726	5020.5
995.48	44.5986	5025.4
996.12	34.672	5029.4
996.75	34.4904	5033.4
997.42	31.2274	5037.9
998.21	30.782	5043.1
998.99	42.9758	5048.3
999.59	39.6978	5052.2
1000.23	38.719	5056.4
1000.89	46.6772	5061.4
1001.5	47.8856	5065.9
1002.08	39.4988	5070.3
1002.68	37.3554	5074.4
1003.38	39.1244	5079.6
1004.16	40.9776	5084.5
1004.87	43.8494	5089.3
1005.44	44.8456	5093.6
1006.01	46.7286	5097.4
1006.7	48.9362	5101.7
1007.43	39.4912	5106.5
1008.04	38.4522	5110.8
1008.56	40.8222	5114.7
1009.15	40.4116	5119.5
1009.83	36.6944	5123.8
1010.71	42.1928	5130.1
1011.87	44.2402	5137.8
1012.83	37.751	5144.2
1013.5	35.5294	5148.9
1014.25	32.4868	5154.5
1015.04	38.4048	5160.5
1015.81	36.015	5165.6
1016.48	41.5946	5170.0
1017.03	26.6414	5173.9
1017.6	21.826	5178.0
1018.18	22.607	5181.9
1018.76	36.4684	5185.8
1019.33	23.2286	5190.3
1019.85	27.2156	5193.9
1020.37	21.9318	5197.8
1020.93	38.5624	5201.8
1021.54	38.2508	5206.1
1022.13	37.6718	5210.5
1022.67	31.1422	5214.3
1023.22	30.6124	5218.2
1023.78	30.9352	5222.3
1024.33	28.2978	5225.8
1024.95	27.4288	5230.4
1025.55	24.6888	5235.2
1026.05	23.8896	5238.1
1026.57	21.8888	5241.6
1027.15	28.3376	5245.8
1027.78	22.5518	5249.5
1028.37	24.7628	5253.5
1028.98	36.7878	5257.9
1029.87	31.4784	5264.5
1031.62	22.3084	5276.9
1033.12	37.0786	5287.6
1033.74	31.1024	5291.9
1034.38	30.1846	5296.9
1035	48.644	5301.6
1035.55	40.3652	5305.7
1036.1	29.867	5309.9
1036.8	33.3812	5315.1
1037.65	32.2928	5320.8
1038.35	36.1394	5326.2
1038.96	42.3806	5331.1
1039.61	32.567	5335.6
1040.2	32.8504	5339.7
1040.83	42.6458	5344.3
1041.43	30.2356	5348.2
1042.04	37.0644	5352.5
1042.72	41.8372	5356.9
1043.37	37.906	5361.7
1044.01	41.6556	5366.1
1044.64	42.0826	5370.9
1045.26	33.8436	5375.1
1045.84	27.004	5379.2
1046.4	31.5572	5383.1
1047.05	36.186	5387.5
1047.74	27.4898	5391.9
1048.47	35.5298	5396.8
1049.17	32.5282	5401.5
1049.77	21.7744	5405.6
1050.36	16.1032	5409.9
1050.98	27.3446	5414.7
1051.55	22.61	5418.8
1052.13	17.1632	5422.9
1052.77	26.0968	5427.5
1053.39	20.981	5431.9
1054.01	27.4392	5437.2
1054.68	26.8294	5442.1
1055.33	22.3618	5446.5
1055.93	16.0732	5450.8
1056.53	25.1708	5455.4
1057.14	25.4352	5459.9
1057.77	36.3394	5464.2
1058.36	27.725	5468.8
1058.96	31.3264	5473.0
1059.65	29.814	5477.6
1060.31	32.5596	5483.2
1060.86	25.6114	5487.2
1061.53	36.8998	5492.4
1062.45	40.467	5499.0
1063.28	26.656	5506.4
1063.86	29.5516	5509.9
1064.45	28.0216	5514.4
1065.04	37.8342	5518.7
1065.55	17.1062	5522.6
1066.06	30.1872	5526.8
1066.77	23.1182	5531.8
1067.71	19.7034	5538.4
1068.51	24.5462	5544.2
1069.13	32.4316	5548.7
1069.83	30.0804	5554.3
1070.51	34.8042	5559.5
1071.1	19.006	5563.9
1071.7	28.6622	5568.4
1072.27	24.384	5572.8
1072.86	35.1074	5576.9
1073.44	28.4072	5580.5
1074.02	30.2614	5584.4
1074.74	30.6394	5590.0
1075.53	29.9942	5596.5
1076.25	27.4338	5601.5
1076.92	42.745	5606.2
1077.61	32.7294	5611.1
1078.23	37.3588	5615.7
1078.78	32.3488	5620.0
1079.4	40.7192	5625.2
1080.12	21.5666	5630.6
1080.8	36.3042	5635.7
1081.43	24.0994	5641.3
1082.08	25.9736	5645.7
1082.7	29.641	5650.5
1083.36	26.4508	5655.3
1084.01	32.4152	5660.2
1084.56	30.5072	5664.3
1085.11	41.2734	5668.6
1085.69	37.4484	5673.0
1086.25	29.2954	5677.7
1086.81	25.0704	5682.2
1087.36	21.9194	5687.1
1087.91	22.8006	5691.5
1088.51	23.9386	5696.1
1089.16	17.1864	5701.2
1089.75	22.4198	5706.0
1090.34	33.1142	5710.3
1090.94	27.0144	5715.5
1091.45	26.9824	5719.3
1091.98	22.7638	5723.6
1092.62	28.7254	5728.3
1093.3	31.7602	5734.1
1093.91	37.6534	5738.7
1094.45	34.003	5742.7
1095.36	19.2596	5750.5
1096.81	24.6484	5762.1
1097.87	20.2222	5771.0
1098.46	28.2232	5775.6
1099.22	17.3788	5781.4
1100.07	30.3122	5787.5
1100.84	36.4012	5794.1
1101.54	35.1986	5799.5
1102.16	32.815	5804.3
1102.72	35.868	5808.5
1103.39	33.2008	5813.8
1104.07	21.107	5819.0
1104.7	25.264	5823.1
1105.32	29.2576	5827.6
1105.89	35.1278	5831.9
1106.47	43.196	5836.4
1107.09	51.5188	5841.0
1107.71	36.894	5846.6
1108.25	31.8184	5850.8
1108.94	28.7626	5855.9
1109.86	26.1692	5862.6
1110.64	18.5818	5869.1
1111.22	23.3784	5873.4
1111.78	33.7808	5877.4
1112.38	30.8786	5881.9
1113.02	37.277	5886.6
1113.66	34.613	5891.5
1114.24	42.8958	5895.7
1114.79	32.4118	5899.9
1115.34	20.5056	5903.7
1115.95	29.3516	5908.6
1116.6	26.4842	5913.3
1117.2	31.22	5918.1
1117.75	39.826	5922.5
1118.29	38.9338	5926.5
1118.88	45.423	5930.6
1119.44	31.8848	5935.1
1120.03	26.0618	5939.5
1120.93	24.6602	5946.5
1121.95	28.5068	5954.1
1122.73	34.392	5959.9
1123.37	16.4152	5964.9
1124.03	30.6984	5969.9
1124.69	23.5014	5974.5
1125.28	30.442	5979.0
1125.93	23.8562	5982.9
1126.56	34.4364	5987.7
1127.11	31.484	5992.1
1127.7	35.2218	5996.5
1128.3	32.821	6001.0
1128.89	27.3104	6005.2
1129.46	26.73	6009.9
1130.05	24.532	6014.3
1130.71	27.3052	6019.5
1131.38	31.8062	6024.5
1131.98	27.114	6029.4
1132.53	36.2214	6033.6
1133.1	30.61	6037.5
1133.69	24.8148	6041.7
1134.36	26.811	6047.4
1135.07	25.6164	6052.8
1135.66	43.172	6057.6
1136.21	48.81	6062.0
1136.78	41.9412	6066.2
1137.43	37.5794	6071.3
1138.08	41.0812	6076.5
1138.65	46.323	6081.2
1139.22	44.9336	6085.4
1139.77	33.9916	6089.9
1140.32	39.4046	6094.8
1140.89	47.0642	6099.8
1141.44	42.2752	6104.1
1141.96	41.4964	6108.0
1142.51	31.348	6112.5
1143.1	42.8156	6117.8
1143.7	37.4342	6122.2
1144.27	42.2462	6126.6
1145.69	31.9938	6138.0
1147.32	36.6208	6150.4
1148.05	32.5796	6155.3
1148.64	22.9202	6159.3
1149.43	23.5586	6164.8
1150.26	12.6628	6170.7
1150.97	25.1128	6176.4
1151.55	18.177	6181.3
1152.1	17.7002	6185.7
1152.74	24.2124	6190.8
1153.34	18.8034	6196.1
1153.9	22.3508	6200.7
1154.5	22.1328	6205.3
1155.05	25.3676	6209.4
1155.59	37.3604	6213.7
1156.18	25.1948	6218.3
1156.78	32.4728	6223.1
1157.34	30.548	6228.0
1157.85	22.5108	6232.0
1158.42	27.0228	6236.6
1159.02	30.732	6241.8
1159.55	27.0594	6246.3
1160.05	30.0174	6250.4
1160.58	33.2012	6254.6
1161.16	22.174	6259.3
1161.73	28.8924	6264.0
1162.31	33.3508	6269.2
1163.1	33.6294	6275.2
1163.88	36.2192	6281.4
1164.47	31.0146	6285.7
1165.1	28.4888	6290.6
1165.72	32.2298	6294.7
1166.26	22.9288	6299.2
1166.81	20.6794	6303.3
1167.4	28.495	6308.4
1168.04	31.7498	6313.7
1168.72	35.494	6318.9
1169.34	28.8626	6323.8
1169.93	27.6496	6328.3
1170.56	32.6946	6333.0
1171.24	34.413	6338.6
1171.91	38.3854	6343.7
1172.52	40.1226	6348.2
1173.11	43.8098	6352.8
1173.77	42.879	6357.4
1174.42	32.4944	6362.8
1175	44.309	6367.4
1175.55	40.4308	6371.6
1176.13	45.0412	6376.3
1176.76	40.5164	6380.5
1177.36	40.2816	6384.9
1178.25	30.3654	6391.9
1179.12	37.3514	6399.1
1179.71	37.6906	6404.2
1181.48	21.08	6418.2
1183.22	38.4926	6432.1
1183.75	38.4268	6436.1
1184.28	44.5286	6440.2
1184.88	45.1178	6445.1
1185.45	32.8714	6449.7
1185.98	38.405	6453.9
1186.63	41.4384	6459.3
1187.25	51.921	6464.0
1187.75	39.1474	6467.9
1188.27	43.5838	6471.8
1188.86	31.9716	6476.7
1189.44	26.133	6481.8
1189.96	39.4922	6485.9
1190.53	29.7306	6490.8
1191.12	24.9596	6495.5
1191.7	26.3852	6499.5
1192.29	26.956	6504.0
1192.94	50.8726	6509.0
1193.55	51.7994	6513.5
1194.05	32.4202	6517.7
1194.56	35.9566	6522.0
1195.11	22.6644	6526.4
1195.83	22.4256	6532.3
1196.68	23.6404	6539.1
1197.35	35.9746	6544.4
1198.05	31.3298	6549.5
1198.85	38.2286	6555.8
1199.45	46.2558	6560.2
1200	39.7794	6564.1
1200.58	33.3854	6568.6
1201.23	25.9172	6573.7
1201.86	13.1052	6579.0
1202.41	17.2916	6583.4
1203	28.5258	6588.5
1203.56	28.946	6592.6
1204.11	21.2398	6596.9
1204.67	37.1512	6601.3
1205.22	34.122	6605.5
1205.77	21.6792	6609.6
1206.32	23.8398	6613.8
1206.89	35.9278	6618.5
1207.44	36.808	6622.7
1208.04	31.9456	6627.4
1208.69	27.4658	6632.6
1209.25	26.6084	6637.1
1209.78	25.771	6642.1
1210.42	24.6256	6647.4
1211.17	31.3014	6652.9
1211.84	28.3724	6657.5
1212.41	30.5064	6662.5
1213	31.057	6667.0
1213.58	25.3472	6671.7
1214.13	25.5608	6676.1
1214.67	24.1808	6680.5
1215.22	21.4804	6685.1
1215.75	15.2704	6689.6
1216.25	21.1116	6693.6
1216.78	25.3554	6698.1
1217.33	22.6164	6702.1
1217.88	19.8852	6706.3
1218.43	34.0926	6710.8
1219.28	20.785	6718.5
1220.18	27.9652	6725.6
1220.78	27.206	6730.5
1221.33	25.51	6734.9
1221.85	27.6114	6739.0
1222.35	30.8438	6743.3
1222.89	35.5814	6747.5
1223.49	38.8924	6752.7
1224.09	31.698	6758.0
1224.72	27.4362	6763.0
1225.33	30.2092	6768.5
1225.85	20.5476	6772.6
1226.35	24.3758	6777.2
1226.89	33.3178	6781.3
1227.44	32.9634	6786.0
1227.95	29.0592	6790.3
1228.51	22.1308	6795.2
1229.17	26.9684	6801.2
1229.81	27.1596	6807.1
1230.35	25.4068	6811.8
1230.89	31.9518	6816.0
1231.44	39.5238	6820.3
1231.95	44.993	6824.8
1232.47	32.3616	6829.3
1233.1	24.4718	6833.8
1233.83	25.6374	6840.3
1234.45	32.281	6845.6
1234.95	35.8268	6849.6
1235.45	27.5942	6853.7
1235.98	24.5566	6858.1
1236.65	31.6194	6863.2
1237.37	24.462	6868.9
1238.01	29.2022	6873.7
1238.61	29.2286	6878.3
1239.15	27.007	6882.6
1239.65	33.9572	6887.0
1240.2	26.0294	6891.9
1240.75	21.0158	6896.4
1241.25	25.0364	6900.5
1241.85	25.0498	6905.4
1242.61	20.5118	6911.4
1243.31	27.479	6916.9
1243.88	19.5334	6921.7
1244.43	29.0392	6926.6
1244.95	38.983	6930.8
1245.49	38.9298	6935.0
1246.06	35.4424	6939.7
1246.62	42.0306	6944.4
1247.15	39.9546	6949.0
1247.65	38.9778	6953.2
1248.15	43.3078	6957.6
1248.8	55.6366	6963.4
1249.8	26.3028	6972.0
1250.67	26.7496	6979.8
1251.22	26.4132	6984.0
1251.75	33.9394	6988.5
1252.25	35.0568	6992.7
1252.78	28.3684	6997.5
1253.33	30.6856	7002.2
1253.85	22.6038	7006.8
1254.35	30.5984	7011.0
1254.86	37.288	7015.3
1255.41	40.4402	7019.8
1255.95	39.9056	7024.6
1256.45	38.257	7029.4
1257	29.5594	7034.5
1257.55	27.8728	7038.9
1258.05	25.2698	7042.8
1258.59	24.1894	7047.6
1259.14	27.5772	7052.6
1259.65	30.892	7057.1
1260.16	34.155	7061.6
1260.71	32.686	7066.2
1261.25	34.1804	7070.7
1261.75	33.7572	7074.5
1262.27	29.4528	7078.9
1263.3	28.0524	7088.3
1264.47	29.3552	7098.3
1265.19	31.7956	7104.4
1265.78	36.2368	7109.8
1266.35	37.3502	7114.2
1266.92	35.9152	7118.8
1267.45	42.1312	7123.6
1267.95	28.0054	7127.8
1268.45	33.6456	7132.1
1269	29.5174	7136.7
1269.55	26.2982	7141.1
1270.05	23.9572	7145.5
1270.56	26.6196	7149.9
1271.13	24.8258	7154.8
1271.72	25.249	7159.1
1272.25	36.3794	7163.4
1272.78	34.228	7167.5
1273.33	33.0434	7171.7
1273.85	36.7696	7175.8
1274.4	46.6706	7181.2
1274.95	31.2044	7186.3
1275.45	27.5448	7190.8
1276.01	41.1064	7195.4
1276.83	38.3046	7202.3
1277.62	32.1612	7209.3
1278.15	17.3196	7214.0
1278.65	18.1734	7218.3
1279.15	37.8634	7222.7
1279.65	22.1958	7227.1
1280.16	16.8172	7231.0
1280.74	20.1	7235.8
1281.33	19.9974	7241.4
1281.85	24.6076	7245.7
1282.4	25.8078	7251.2
1283	20.2566	7256.3
1283.55	25.6108	7261.4
1284.05	36.067	7266.0
1284.56	26.2622	7270.3
1285.11	29.0418	7275.2
1285.65	34.4032	7279.7
1286.54	45.0654	7287.3
1287.44	43.4866	7294.5
1287.95	40.4998	7298.6
1288.45	39.433	7302.8
1289	41.884	7307.3
1289.55	33.1718	7312.2
1290.05	31.2644	7316.7
1290.56	31.3788	7321.1
1291.11	37.5472	7326.3
1291.65	39.6836	7331.0
1292.15	40.9384	7335.0
1292.7	44.1614	7339.9
1293.25	39.847	7344.8
1293.8	35.432	7349.4
1294.35	39.1076	7353.7
1294.9	27.1916	7358.5
1295.47	41.6656	7363.4
1296.02	48.6014	7367.7
1296.56	38.1888	7372.1
1297.11	23.3918	7376.4
1297.68	28.3418	7381.7
1298.23	21.3998	7386.0
1298.78	33.901	7391.0
1299.33	28.1136	7395.6
1299.95	38.1458	7400.8
1300.56	46.7504	7406.3
1301.15	33.9674	7411.6
1301.74	28.7412	7416.8
1302.25	31.2266	7421.2
1302.78	37.3176	7425.4
1303.33	43.8976	7430.1
1303.89	41.2338	7434.4
1304.5	44.8474	7439.7
1305.11	42.7706	7444.6
1305.65	40.2478	7449.4
1306.15	36.8204	7453.4
1306.7	34.9246	7457.8
1307.25	29.7168	7462.8
1307.75	30.6194	7467.4
1308.25	39.4148	7471.8
1308.78	45.9004	7476.6
1309.33	32.4774	7481.4
1309.85	27.4378	7485.6
1310.35	17.4526	7490.0
1310.85	26.6388	7494.3
1311.35	26.247	7499.0
1311.87	25.3422	7503.3
1312.42	32.7866	7507.5
1313	23.774	7512.9
1313.55	35.869	7517.9
1314.05	24.1162	7522.3
1314.56	29.823	7526.9
1315.11	37.5618	7531.7
1315.65	32.0402	7537.2
1316.15	23.332	7541.3
1316.65	25.9264	7545.5
1317.15	33.3978	7549.8
1317.69	26.8798	7554.2
1318.24	29.4544	7558.6
1318.78	32.3798	7562.9
1319.33	38.674	7567.8
1319.85	37.427	7571.8
1320.35	41.278	7576.1
1320.85	38.2156	7580.4
1321.35	63.8024	7584.9
1321.85	40.906	7589.0
1322.35	42.0222	7593.4
1322.99	40.0952	7598.6
1323.69	35.119	7604.5
1324.25	32.5774	7609.2
1324.75	35.0756	7613.3
1325.25	26.8056	7618.3
1325.77	81.608	7622.9
1326.32	30.6062	7628.0
1326.85	33.255	7633.4
1327.35	32.0628	7637.7
1327.85	33.3342	7641.8
1328.35	28.3144	7645.8
1328.89	33.955	7650.6
1329.44	41.0736	7655.4
1329.95	39.0982	7659.5
1330.45	38.3262	7664.0
1330.97	34.9464	7668.7
1331.52	36.7264	7674.3
1332.05	41.2306	7678.6
1332.55	32.2856	7683.0
1333.05	36.4696	7687.1
1333.55	30.7622	7691.3
1334.05	27.9612	7695.1
1334.56	40.9274	7699.5
1335.11	35.2958	7703.8
1335.73	36.108	7709.4
1336.36	38.9396	7715.2
1337.03	49.5706	7721.7
1337.65	52.1248	7727.5
1338.15	48.1808	7731.7
1338.67	44.6288	7736.3
1339.22	46.314	7741.0
1339.75	36.0616	7745.6
1340.27	57.3034	7750.3
1340.82	42.1942	7755.0
1341.35	46.17	7759.5
1341.85	51.531	7763.5
1342.4	44.9104	7768.5
1342.95	34.0186	7772.8
1343.46	38.2488	7777.5
1344.01	48.0976	7782.1
1344.55	55.9576	7786.5
1345.05	52.7966	7791.2
1345.55	57.1808	7795.5
1346.05	46.777	7799.7
1346.55	56.7666	7803.5
1347.05	37.832	7807.8
1347.55	26.2318	7812.4
1348.1	40.4432	7816.6
1348.65	49.1716	7821.2
1349.15	51.3036	7825.8
1349.67	30.4194	7830.2
1350.22	31.9636	7835.0
1350.75	31.6818	7839.5
1351.25	19.6706	7844.0
1351.75	22.9986	7849.0
1352.25	25.0336	7853.4
1352.78	35.128	7857.4
1353.33	34.153	7862.2
1353.85	42.876	7867.3
1354.35	40.8198	7871.9
1354.85	33.6196	7876.0
1355.35	38.689	7880.4
1355.85	40.2198	7884.8
1356.35	40.4944	7889.1
1356.89	29.5724	7894.6
1357.44	39.2514	7899.2
1357.95	25.7488	7903.4
1358.45	35.4022	7908.5
1358.95	48.3552	7912.7
1359.45	35.0242	7916.9
1359.95	26.44	7921.7
1360.45	32.3528	7925.9
1361	32.2476	7930.6
1361.55	25.4004	7935.3
1362.05	39.1046	7940.1
1362.55	50.242	7945.0
1363.05	43.9886	7950.0
1363.55	35.4496	7954.5
1364.05	35.9688	7959.2
1364.56	61.7472	7963.9
1365.11	39.065	7968.5
1365.65	36.882	7973.2
1366.15	37.5724	7978.0
1366.67	43.1592	7982.4
1367.22	47.8918	7987.2
1367.75	39.257	7991.2
1368.25	47.3194	7995.5
1368.78	47.0898	8000.3
1369.33	44.4848	8005.4
1369.85	35.0564	8010.2
1370.5	37.6234	8016.3
1371.25	31.9346	8022.8
1371.85	38.563	8028.9
1372.35	28.3388	8033.8
1372.95	31.071	8039.0
1373.55	34.3536	8044.3
1374.05	39.7456	8049.1
1374.55	36.945	8052.5
1375.05	29.823	8056.9
1375.55	35.951	8061.3
1376.05	44.227	8066.4
1376.56	33.9592	8071.5
1377.11	35.4862	8076.5
1377.65	29.6714	8081.8
1378.15	26.931	8086.5
1378.67	30.0582	8089.7
1379.22	38.4806	8093.8
1379.75	28.2862	8098.0
1380.25	30.2566	8102.4
1380.75	39.8	8107.2
1381.25	35.139	8111.8
1381.75	38.1104	8116.4
1382.25	37.1728	8120.6
1382.75	34.0904	8125.1
1383.25	40.5986	8129.0
1383.75	31.5148	8133.6
1384.25	41.1264	8138.6
1384.78	31.5382	8144.6
1385.33	33.1804	8150.5
1385.85	32.2664	8155.8
1386.35	26.3404	8160.7
1386.85	39.2392	8165.0
1387.35	44.7948	8169.8
1387.85	34.1882	8173.9
1388.35	37.9028	8179.0
1388.89	30.0878	8184.5
1389.44	21.658	8191.3
1389.95	21.6434	8196.3
1390.45	30.7846	8201.5
1390.95	25.1754	8205.8
1391.45	21.096	8210.5
1391.95	16.8568	8214.9
1392.45	31.2706	8219.7
1392.95	39.5688	8224.8
1393.45	39.5554	8229.4
1393.95	33.6668	8234.7
1394.45	26.3766	8240.1
1396	24.7014	8256.0
1397.55	20.506	8271.5
1398.05	27.3452	8277.2
1398.76	32.0894	8284.3
1400.31	44.4438	8298.6
1401.65	37.6348	8309.7
1402.15	34.0456	8314.4
1402.65	38.5612	8318.7
1403.15	29.3966	8322.9
1403.65	25.6802	8327.7
1404.15	29.3772	8331.6
1404.65	27.8408	8337.1
1405.15	49.5866	8342.2
1405.65	40.4768	8346.3
1406.18	24.1706	8352.0
1406.73	29.2792	8357.9
1407.25	20.3706	8362.9
1407.75	28.2288	8367.9
1408.25	20.2842	8372.6
1408.75	29.3534	8376.7
1409.25	38.3084	8382.3
1409.75	29.6462	8386.8
1410.25	29.0228	8392.0
1410.78	30.7492	8396.8
1411.33	30.2012	8400.8
1411.85	23.0614	8406.2
1412.35	34.51	8409.8
1412.89	38.6212	8416.5
1413.44	61.7594	8422.0
1413.95	38.181	8427.3
1414.45	38.3892	8431.2
1414.95	43.3116	8435.3
1415.45	37.8316	8440.3
1415.95	43.5456	8444.1
1416.45	39.8916	8449.4
1417	40.2896	8455.5
1417.55	37.897	8460.8
1418.05	36.7404	8465.8
1418.55	36.2356	8470.8
1419.05	28.0022	8475.8
1419.55	39.0234	8481.1
1420.05	41.2992	8484.9
1420.56	38.4534	8490.3
1421.11	38.5156	8495.8
1421.65	44.5504	8501.3
1422.15	39.462	8505.9
1422.65	35.7538	8511.5
1423.15	37.1856	8515.6
1423.65	37.6478	8520.4
1424.15	37.63	8525.3
1424.65	39.9872	8530.0
1425.15	42.9582	8535.0
1425.65	48.0244	8539.8
1426.15	47.9462	8545.0
1426.68	42.8726	8550.4
1427.23	31.4322	8555.7
1427.75	50.7288	8560.5
1428.25	37.5598	8564.6
1428.75	34.1108	8568.8
1429.25	35.6872	8573.8
1429.75	37.3132	8577.5
1430.25	32.1788	8581.3
1430.77	38.8396	8586.6
1431.32	37.4112	8592.0
1431.85	35.6868	8597.1
1432.35	39.7342	8602.1
1432.85	33.1802	8606.3
1433.35	29.1078	8610.8
1433.85	38.8704	8615.9
1434.35	30.6154	8620.4
1434.85	31.688	8625.1
1435.35	26.042	8630.3
1435.85	26.9072	8634.9
1436.38	29.1658	8639.4
1436.93	37.1084	8644.1
1437.45	34.4828	8649.4
1437.95	43.791	8654.2
1438.45	40.6378	8658.7
1438.95	41.2698	8662.9
1439.45	54.3976	8667.6
1439.95	34.738	8672.7
1440.45	30.3342	8677.4
1440.95	38.9228	8682.5
1441.49	37.7536	8687.4
1442.04	37.3656	8694.2
1442.56	38.3396	8699.5
1443.11	29.4446	8704.9
1443.65	33.772	8709.9
1444.15	41.0384	8714.4
1444.65	70.1668	8718.3
1445.15	35.6454	8723.8
1445.65	29.0342	8727.9
1446.15	44.316	8733.2
1446.65	46.4984	8737.6
1447.15	35.8812	8742.5
1447.65	29.858	8746.8
1448.15	33.4294	8751.8
1448.67	40.0048	8756.3
1449.22	41.2746	8760.9
1449.78	40.8214	8766.0
1450.33	35.5532	8771.4
1450.85	42.9442	8776.4
1451.35	40.9042	8781.2
1451.85	42.1282	8785.9
1452.35	28.021	8792.3
1452.85	40.9048	8796.6
1453.35	45.1074	8801.6
1453.85	47.3634	8806.7
1454.35	42.9034	8811.8
1454.89	35.405	8817.6
1455.44	30.8772	8822.8
1455.95	41.4724	8828.3
1456.45	50.3658	8833.7
1456.95	36.6586	8839.3
1457.45	39.4198	8844.0
1457.95	33.7832	8849.6
1458.45	38.721	8854.5
1458.95	40.0078	8858.8
1459.46	41.689	8863.8
1460.01	35.9932	8869.5
1460.55	38.142	8875.0
1461.05	41.9376	8880.0
1461.55	39.8026	8884.8
1462.05	39.5392	8889.1
1462.55	38.1536	8893.9
1463.05	39.1386	8898.4
1463.55	45.394	8902.7
1464.05	37.2202	8908.3
1464.56	40.0742	8913.3
1465.11	44.3234	8918.5
1465.65	37.7366	8923.3
1466.15	34.9974	8928.1
1466.67	41.6074	8933.1
1467.22	41.3752	8938.4
1467.75	38.909	8944.2
1468.25	26.6248	8949.1
1468.75	27.9496	8954.2
1469.25	27.5866	8959.7
1469.75	28.5542	8964.5
1470.25	31.4846	8968.9
1470.75	38.469	8974.2
1471.25	39.9622	8979.4
1471.75	37.8794	8984.5
1472.25	44.07	8989.4
1472.78	42.3886	8994.3
1473.33	48.7898	9000.3
1473.85	47.7704	9005.3
1474.35	52.196	9010.4
1474.85	45.0006	9015.8
1475.35	43.2484	9020.5
1475.85	39.9188	9025.9
1476.35	41.9364	9031.3
1476.89	48.2548	9036.9
1477.44	61.1954	9042.3
1477.95	45.3966	9048.1
1478.45	35.1788	9051.9
1478.95	48.9312	9055.7
1479.45	47.37	9060.8
1479.95	54.9288	9066.1
1480.45	58.8968	9071.0
1481	29.9102	9076.3
1481.55	31.6512	9081.9
1482.05	30.6972	9086.7
1482.55	38.7358	9090.7
1483.05	31.0834	9095.6
1483.55	31.5204	9100.2
1484.05	40.0066	9105.5
1484.55	34.2852	9110.1
1485.05	51.3506	9114.7
1485.55	41.471	9119.3
1486.05	47.688	9124.2
1486.56	45.7236	9129.0
1487.11	42.6628	9135.1
1487.65	39.1584	9140.5
1488.15	39.6724	9145.5
1488.65	45.6392	9151.2
1489.15	39.7584	9157.0
1489.65	42.949	9161.9
1490.15	72.9108	9166.4
1490.67	48.73	9170.6
1491.22	42.1732	9175.9
1491.75	42.0338	9180.7
1492.25	38.008	9186.5
1492.75	35.424	9191.7
1493.25	33.5714	9196.5
1493.75	38.9518	9202.0
1494.25	35.796	9207.5
1494.75	45.8558	9213.1
1495.25	43.5152	9218.5
1495.75	40.9456	9223.8
1496.27	42.341	9229.8
1496.82	44.615	9235.8
1497.35	32.4436	9240.8
1497.85	31.3448	9246.4
1498.35	30.7924	9251.4
1498.85	41.0304	9256.8
1499.35	40.8012	9261.5
1499.89	55.5472	9267.4
1500.44	54.9196	9273.1
1500.95	52.1214	9279.0
1501.57	49.9156	9285.3
1502.37	61.265	9294.8
1504.05	51.035	9313.2
1505.55	44.7698	9326.9
1506.05	53.6358	9332.4
1506.55	50.8854	9337.3
1507.05	48.534	9342.9
1507.55	44.134	9348.8
1508.05	54.0346	9354.3
1508.56	50.2748	9359.1
1509.11	56.7872	9365.1
1509.65	50.818	9370.1
1510.15	36.2532	9375.6
1510.65	41.1808	9381.8
1511.15	58.5496	9387.3
1511.65	48.3056	9392.8
1512.15	35.9246	9398.1
1512.65	40.1556	9403.3
1513.15	52.5922	9408.7
1513.65	52.895	9414.3
1514.15	46.1778	9419.2
1514.68	47.0584	9425.1
1515.23	54.953	9430.5
1515.75	53.069	9436.0
1516.25	57.7562	9441.5
1516.75	58.8826	9446.5
1517.25	64.9978	9451.5
1517.75	66.1318	9456.6
1518.26	63.0348	9462.3
1518.81	54.1116	9468.5
1519.35	68.5254	9474.5
1519.85	69.9424	9479.4
1520.35	63.8884	9485.6
1520.85	63.918	9491.4
1521.35	59.599	9497.3
1521.85	49.903	9502.7
1522.35	44.5674	9508.4
1522.85	47.3488	9515.4
1523.35	55.3674	9521.1
1523.85	46.7562	9526.8
1524.35	48.3502	9531.9
1524.89	47.6684	9538.6
1525.44	43.482	9544.7
1525.95	41.9886	9550.0
1526.45	42.3354	9555.5
1526.95	47.1124	9561.6
1527.45	51.3092	9567.2
1527.95	46.6214	9573.2
1528.45	47.1094	9578.1
1528.95	46.2566	9583.6
1529.45	46.7512	9589.1
1529.95	46.226	9595.3
1530.45	46.9596	9600.8
1531	48.3806	9608.0
1531.55	44.1224	9614.3
1532.05	47.0048	9619.9
1532.55	52.9934	9625.4
1533.05	45.3458	9631.8
1533.55	52.4028	9637.6
1534.05	51.5736	9643.7
1534.56	50.3762	9649.5
1535.11	46.6122	9654.9
1535.65	48.9982	9660.7
1536.15	48.9246	9666.6
1536.65	47.3928	9672.3
1537.15	37.165	9678.0
1537.65	43.3798	9685.0
1538.15	38.8442	9692.0
1538.65	43.6496	9697.9
1539.15	51.1348	9704.1
1539.67	53.062	9709.6
1540.22	53.0786	9715.3
1540.75	55.508	9721.6
1541.25	58.9418	9727.0
1541.75	61.5992	9732.9
1542.25	58.8508	9739.0
1542.75	47.8828	9745.5
1543.25	48.309	9750.6
1543.75	45.089	9756.7
1544.25	46.3356	9762.1
1544.78	43.0508	9768.0
1545.33	44.8874	9775.2
1545.85	44.8526	9781.4
1546.35	41.7782	9787.3
1546.85	50.4756	9792.6
1547.35	49.6172	9799.0
1547.85	55.769	9805.2
1548.35	52.2346	9811.1
1548.89	51.6708	9816.7
1549.44	59.5452	9823.1
1550	55.6016	9828.7
1550.55	57.2214	9835.4
1551.05	53.7914	9841.2
1551.55	48.5022	9847.0
1552.05	52.3266	9852.6
1552.55	56.3746	9857.9
1553.05	55.6258	9862.9
1553.55	48.5072	9869.0
1554.05	55.8336	9874.7
1554.56	51.9796	9881.4
1555.11	48.7274	9887.8
1555.65	50.1016	9894.6
1556.15	56.343	9900.5
1556.65	44.1544	9905.6
1557.15	47.8056	9910.4
1557.65	49.8944	9916.3
1558.15	56.893	9922.1
1558.65	59.779	9929.1
1559.15	61.149	9934.9
1559.65	62.2678	9940.4
1560.18	64.8826	9947.7
1560.73	59.135	9954.0
1561.25	43.8908	9959.9
1561.75	46.9062	9965.7
1562.25	44.8852	9971.0
1562.75	48.0544	9975.8
1563.25	46.758	9981.6
1563.75	56.703	9987.7
1564.25	49.5796	9993.1
1564.78	45.676	9999.4
1565.33	27.0206	10006
1565.85	23.8744	10012
1566.35	30.1668	10019
1566.85	38.212	10025
1567.35	50.5522	10030
1567.85	38.9114	10037
1568.38	39.33	10042
1568.93	52.906	10049
1569.45	50.6476	10054
1569.95	50.9648	10061
1570.45	52.1548	10067
1570.95	46.1804	10073
1571.45	43.7368	10078
1571.95	44.9254	10084
1572.45	43.7678	10090
1572.95	41.5522	10096
1573.45	38.4816	10103
1573.95	39.8752	10109
1574.45	43.1352	10115
1575	49.422	10122
1575.55	55.275	10129
1576.05	43.2182	10135
1576.55	46.9846	10142
1577.05	45.5108	10149
1577.55	49.1246	10155
1578.05	53.9984	10161
1578.55	47.628	10169
1579.05	59.6266	10175
1579.55	50.697	10181
1580.05	39.273	10188
1580.56	51.0594	10195
1581.11	45.0348	10202
1581.65	44.3858	10210
1582.15	45.8282	10216
1582.65	40.4136	10222
1583.15	42.6818	10228
1583.65	41.0094	10234
1584.15	38.892	10240
1584.65	39.0354	10246
1585.15	39.4	10252
1585.65	38.698	10258
1586.16	37.6862	10264
1586.71	49.8952	10271
1587.25	33.6448	10278
1587.75	29.668	10283
1588.25	40.9352	10289
1588.75	56.4466	10295
1589.25	50.1304	10302
1589.75	44.7882	10309
1590.25	47.6094	10315
1590.78	53.4868	10322
1591.33	44.4038	10331
1591.85	47.5194	10338
1592.35	42.022	10344
1592.85	40.5054	10350
1593.35	44.6692	10356
1593.85	39.7188	10362
1594.35	52.2844	10368
1594.89	45.9104	10375
1595.44	47.3676	10381
1595.95	54.6692	10389
1596.45	46.6434	10396
1596.95	48.8444	10401
1597.45	30.828	10408
1597.95	33.4342	10414
1598.45	39.7844	10422
1599	44.8742	10430
1599.56	36.0982	10437
1600.11	46.0504	10445
1600.65	44.125	10452
1601.15	44.1398	10458
1601.65	41.4698	10466
1602.15	37.9344	10473
1602.65	48.335	10479
1603.15	41.0772	10486
1603.65	37.6874	10494
1604.15	41.5836	10501
1604.67	44.9542	10508
1605.22	41.9478	10516
1605.75	44.5996	10524
1606.25	40.7186	10531
1606.75	42.0752	10538
1607.25	48.0988	10545
1607.75	50.035	10552
1608.25	50.1012	10558
1608.78	46.9614	10565
1609.33	51.6814	10573
1609.85	48.3624	10580
1610.35	47.3976	10587
1610.85	50.0746	10594
1611.35	50.2218	10601
1611.85	50.9958	10608
1612.35	49.825	10615
1612.89	52.9684	10622
1613.44	46.6456	10631
1613.95	53.6698	10639
1614.45	54.2382	10646
1615.75	43.677	10665
1617.25	47.7	10686
1617.95	46.2706	10695
1618.45	46.9362	10702
1619.75	46.453	10720
1621.25	47.1224	10744
1621.95	45.3436	10753
1622.45	39.6292	10760
1622.95	35.2678	10767
1623.45	42.1764	10774
1623.95	41.7906	10780
1624.45	42.7524	10787
1625	41.6876	10795
1625.55	44.2538	10803
1626.05	40.3644	10810
1626.55	44.0256	10817
1627.05	56.6138	10825
1627.55	49.8066	10832
1628.05	46.9836	10840
1628.55	51.295	10847
1629.05	40.4308	10854
1629.55	44.4028	10861
1630.05	45.7712	10869
1630.56	40.5476	10876
1631.11	32.4368	10885
1631.65	34.7778	10893
1632.15	34.0794	10901
1632.65	38.6656	10908
1633.15	40.207	10915
1633.65	39.1422	10922
1634.15	37.0836	10929
1634.67	38.5784	10937
1635.22	42.5744	10945
1635.75	36.9754	10953
1636.25	44.465	10961
1636.75	43.3354	10969
1637.25	42.1672	10977
1637.75	39.8698	10984
1638.25	45.2306	10991
1638.78	49.4092	10998
1639.33	51.42	11007
1639.85	47.4748	11016
1640.35	49.0352	11024
1640.85	56.6086	11031
1641.35	55.5186	11039
1641.85	48.1882	11047
1642.35	52.3788	11054
1642.89	50.3676	11061
1643.44	39.04	11071
1643.95	34.6578	11081
1644.45	32.4718	11089
1644.95	42.9108	11096
1645.45	39.3238	11103
1645.95	45.2174	11110
1646.45	54.6534	11117
1647	49.9744	11125
1647.55	56.3912	11134
1648.05	63.8734	11143
1648.55	67.742	11151
1649.05	49.2352	11160
1649.56	56.9532	11168
1650.11	56.225	11177
1650.65	63.2274	11185
1651.15	53.0796	11193
1651.65	47.8028	11200
1652.15	46.7036	11207
1652.67	34.8024	11215
1653.22	40.7308	11224
1653.75	53.535	11232
1654.25	35.8672	11240
1654.75	41.8396	11247
1655.25	49.5884	11256
1655.75	48.0586	11265
1656.25	44.625	11273
1656.78	47.5664	11282
1657.33	54.9836	11291
1657.85	60.3606	11299
1658.35	65.3	11306
1658.85	58.5814	11314
1659.35	50.0904	11322
1659.85	44.796	11330
1660.35	46.3576	11339
1660.89	45.6826	11349
1661.44	45.6218	11359
1661.95	40.3194	11369
1662.45	42.7998	11379
1662.95	48.8224	11388
1663.45	47.5256	11398
1663.95	41.304	11407
1664.49	42.519	11416
1665.04	44.7508	11425
1665.55	38.3338	11433
1666.05	48.9962	11442
1666.55	40.2726	11450
1667.05	40.0518	11459
1667.55	29.0784	11467
1668.05	35.7908	11475
1668.56	38.505	11482
1669.11	40.9686	11491
1669.65	52.9612	11499
1670.15	42.583	11506
1670.65	37.4854	11514
1671.15	41.109	11523
1671.65	30.5378	11532
1672.15	43.613	11541
1672.67	39.6808	11550
1673.22	34.3326	11560
1673.75	32.4526	11569
1674.25	34.66	11577
1674.75	37.5686	11586
1675.25	40.5958	11595
1675.75	35.9102	11604
1676.25	34.3994	11614
1676.75	20.7772	11623
1677.25	19.6802	11634
1677.75	6.1796	11646
1678.25	4.8582	11660
1678.78	0.269	11678
1679.33	0.1288	11696
1679.85	0.2016	11712
1680.35	0.1142	11729
1680.85	0.1754	11747
1681.35	0.1546	11764
1681.85	0.9252	11780
1682.35	0.1238	11797
1682.85	0.1282	11814
1683.35	0.2746	11830
1683.85	0.2836	11846
1684.35	0.1372	11863
1684.89	0.1334	11880
1685.44	0.0966	11900
1685.95	0.1084	11919
1686.45	0.402	11936
1686.95	0.8504	11953
1687.45	0.4008	11971
1687.95	0.0164	11989
1688.45	0.016	12006
1688.95	0.2048	12023
1689.45	0.218	12043
1689.95	0.7424	12064
1690.49	0.2192	12084
1691.04	0.0648	12103
1691.55	0.105	12121
1692.05	0.1418	12138
1692.55	0.0708	12157
1693.53	3.2078	12192
1694.64	0.056	12230
1695.31	0.0966	12255
1695.85	0.0774	12278
1696.35	0.1056	12298
1696.85	0.2674	12317
1697.35	0.3258	12337
1697.85	0.2098	12357
1698.37	0.221	12377
1698.92	0.4252	12397
1699.45	0.3854	12417
1700	0.369	12437
1700.55	0.3546	12457
1701.1	0.121	12477
1701.65	0.109	12498
1702.15	0.1158	12518
1702.65	0.153	12537
1703.15	0.3102	12556
1703.65	0.2576	12576
1704.15	0.7064	12596
1704.67	0.5748	12615
1705.22	0.0874	12637
1705.75	0.1194	12657
1706.25	0.0726	12677
1706.75	0.1282	12697
1707.25	0.2422	12716
1707.75	0.2048	12733
1708.25	2.1108	12751
1708.79	0.1228	12771
1709.34	0.121	12792
1709.85	0.2106	12810
1710.35	0.2824	12828
1710.89	5.1294	12845
1711.44	2.9044	12864
1711.95	6.8964	12880
1712.45	19.9248	12895
1713	10.8576	12910
1713.55	26.3542	12924
1714.05	14.907	12936
1714.55	12.3284	12946
1715.05	19.6026	12956
1715.55	29.5472	12967
1716.05	22.4194	12977
1716.56	23.3392	12988
1717.11	22.7218	12999
1717.65	18.9874	13010
1718.15	17.267	13021
1718.67	36.6958	13033
1719.22	11.8188	13046
1719.75	5.747	13058
1720.25	10.6268	13069
1720.75	5.9682	13079
1721.25	0.4376	13090
1721.75	2.1724	13101
1722.25	3.8272	13114
1722.78	0.967	13129
1723.33	0.1162	13146
1723.85	0.1544	13162
1724.35	0.3322	13178
1724.85	0.0952	13193
1725.35	3.622	13207
1725.85	1.086	13220
1726.35	2.0968	13234
1726.85	25.8058	13249
1727.35	30.8766	13262
1727.89	0.9486	13275
1728.44	20.1378	13290
1728.95	29.681	13305
1729.45	23.3492	13316
1729.95	12.6358	13327
1730.45	28.16	13340
1731	18.3514	13355
1731.55	12.9028	13368
1732.05	14.028	13379
1732.55	22.3274	13389
1733.05	25.7358	13399
1733.55	13.921	13411
1734.05	13.3914	13423
1734.56	19.3994	13434
1735.11	19.898	13446
1735.65	30.6506	13458
1736.15	33.1834	13469
1736.65	27.7912	13481
1737.15	26.5202	13492
1737.65	41.4742	13502
1738.15	22.107	13512
1738.67	33.3876	13523
1739.22	35.8052	13534
1739.75	28.669	13545
1740.25	37.376	13554
1740.75	31.9334	13563
1741.25	18.7438	13572
1741.75	21.5294	13582
1742.25	32.435	13593
1742.78	50.2228	13604
1743.33	47.5084	13617
1743.85	55.7734	13630
1744.35	41.7046	13643
1744.85	25.5098	13655
1745.35	23.1936	13667
1745.85	12.7136	13679
1746.35	16.754	13690
1746.89	18.2826	13702
1747.44	20.2496	13713
1747.95	19.088	13723
1748.45	30.0368	13733
1748.95	29.9614	13744
1749.45	19.705	13754
1750	22.6682	13764
1750.55	25.5854	13774
1751.05	27.5454	13784
1751.55	21.2544	13794
1752.05	25.7078	13804
1752.55	32.778	13815
1753.05	28.3106	13825
1753.55	42.3044	13835
1754.05	19.3006	13845
1754.56	24.2606	13855
1755.11	20.55	13866
1755.65	21.0678	13878
1756.15	33.1718	13889
1756.67	24.1904	13901
1757.22	26.093	13914
1757.75	14.85	13926
1758.25	19.3322	13936
1758.75	22.6406	13945
1759.25	24.0308	13956
1759.75	29.6336	13967
1760.25	35.4558	13977
1760.78	24.431	13988
1761.33	7.8556	14000
1761.85	5.917	14010
1762.35	0.3888	14024
1762.87	0.2788	14039
1763.42	24.7852	14055
1763.95	31.3722	14071
1764.45	31.1806	14081
1764.95	23.9116	14092
1765.45	31.7478	14102
1765.95	22.682	14113
1766.45	32.191	14123
1766.95	31.4712	14132
1767.45	37.6962	14140
1767.96	37.9068	14148
1768.51	43.7664	14159
1769.05	48.9766	14169
1769.55	36.27	14178
1770.05	37.77	14188
1770.55	37.3118	14197
1771.05	47.3372	14207
1771.55	41.3654	14215
1772.05	37.945	14224
1772.56	37.0396	14234
1773.11	39.7308	14245
1773.65	44.698	14255
1774.15	45.0232	14264
1774.65	35.0916	14273
1775.15	38.518	14282
1775.65	36.1956	14290
1776.15	35.1068	14299
1776.65	36.6246	14308
1777.15	40.4322	14317
1777.65	39.0396	14325
1778.15	41.5456	14333
1778.67	34.416	14341
1779.22	33.0984	14350
1779.75	28.6302	14359
1780.25	31.7166	14368
1780.75	40.5072	14377
1781.25	26.0114	14385
1781.75	24.6534	14394
1782.25	15.3642	14403
1782.78	28.0906	14412
1783.33	26.7094	14421
1783.85	32.1302	14430
1784.35	29.1818	14437
1784.85	35.4184	14445
1785.35	35.0236	14452
1785.85	39.6498	14460
1786.35	39.4686	14468
1786.85	31.4112	14476
1787.35	41.2034	14484
1787.85	39.648	14492
1788.35	30.0606	14500
1788.89	38.827	14508
1789.44	31.14	14517
1789.95	26.7156	14526
1790.45	26.1856	14534
1790.95	33.0048	14541
1791.45	31.748	14549
1791.95	28.332	14557
1792.45	23.4958	14565
1792.95	26.1724	14573
1793.45	21.826	14582
1793.95	40.477	14590
1794.45	33.0396	14600
1795	19.374	14610
1795.55	21.9636	14622
1796.05	16.354	14632
1796.55	8.7402	14641
1797.05	23.6018	14651
1797.55	0.9484	14663
1798.05	10.9306	14675
1798.55	4.1786	14694
1799.05	0.181	14713
1799.56	10.8078	14733
1800.11	0.4284	14754
1800.65	3.7952	14773
1801.15	0.144	14791
1801.65	0.3514	14809
1802.15	0.1478	14828
1802.65	0.329	14846
1803.15	0.1558	14864
1803.65	0.45	14882
1804.15	0.3778	14899
1804.7	0.15	14919
1805.25	3.4798	14938
1805.75	0.403	14955
1806.25	0.4046	14972
1806.75	0.2522	14989
1807.25	0.2404	15007
1807.75	0.4342	15026
1808.25	0.282	15045
1808.78	0.2748	15063
1809.33	0.2444	15081
1809.85	0.1916	15099
1810.35	0.2134	15116
1810.85	0.1572	15133
1811.35	0.114	15151
1811.85	0.1814	15170
1812.35	0.1364	15189
1812.85	0.1948	15207
1813.35	0.111	15227
1813.85	0.1126	15248
1814.35	0.1364	15268
1814.89	0.1798	15290
1815.44	0.1938	15313
1815.95	0.1822	15335
1816.45	0.2184	15357
1816.95	0.1856	15380
1817.45	0.1058	15400
1817.95	0.1436	15420
1818.45	0.5252	15440
1819	0.3794	15462
1819.55	0.4018	15481
1820.05	0.4104	15499
1820.55	0.267	15521
1821.05	1.7018	15543
1821.55	0.1294	15562
1822.05	0.1806	15582
1822.56	0.248	15604
1823.11	0.3786	15626
1823.65	0.3114	15648
1824.15	0.3224	15668
1824.65	0.304	15688
1825.15	0.1408	15709
1825.65	0.156	15731
1826.15	0.1644	15752
1826.65	0.1424	15773
1827.15	0.1184	15793
1827.65	0.1048	15814
1828.15	0.104	15834
1828.67	0.1798	15853
1829.22	0.187	15874
1829.75	0.2164	15897
1830.25	0.1598	15919
1830.75	0.1176	15941
1831.25	0.1058	15963
1831.75	0.151	15984
1832.25	0.1518	16005
1832.75	0.2658	16024
1833.25	0.2958	16045
1833.75	0.2908	16066
1834.25	0.2796	16088
1834.78	0.1934	16111
1835.33	4.194	16134
1835.85	0.119	16155
1836.35	0.2302	16174
1836.89	0.119	16194
1837.48	0.131	16216
1838.04	0.1858	16238
1838.55	2.523	16258
1839.05	0.1272	16278
1839.55	0.1522	16295
1840.05	0.126	16312
1840.56	0.191	16333
1841.11	0.4908	16355
1841.65	0.3058	16377
1842.15	0.2562	16396
1842.65	0.2676	16414
1843.15	0.4312	16434
1843.65	0.2992	16456
1844.15	0.1928	16478
1844.65	0.255	16500
1845.15	0.3666	16521
1845.65	0.2616	16540
1846.18	0.2788	16560
1846.73	0.191	16581
1847.25	0.2194	16599
1847.75	0.2612	16616
1848.25	0.1862	16634
1848.75	0.1542	16654
1849.25	0.0996	16674
1849.78	0.175	16694
1850.33	0.1208	16713
1850.85	0.1432	16730
1851.35	0.145	16749
1851.85	0.1778	16769
1852.35	0.1638	16786
1852.85	0.2134	16802
1853.35	0.2704	16821
1853.85	0.2564	16841
1854.35	0.3002	16859
1854.9	0.154	16878
1855.45	0.1244	16899
1855.95	0.0954	16920
1856.45	0.135	16939
1856.95	0.098	16958
1857.45	0.0766	16980
1857.95	0.0858	17002
1858.45	0.1124	17022
1858.95	0.083	17043
1859.45	0.075	17065
1859.95	0.0712	17087
1860.45	0.093	17108
1861	0.076	17131
1861.55	0.0658	17154
1862.05	0.078	17175
1862.55	0.107	17192
1863.05	0.105	17209
1863.55	0.131	17228
1864.05	0.1188	17248
1864.55	0.1314	17273
1865.05	0.0962	17297
1865.55	0.109	17318
1866.1	0.1192	17340
1866.65	0.1316	17363
1867.15	0.1362	17384
1867.65	0.13	17405
1868.15	0.1282	17427
1868.65	0.1878	17449
1869.15	0.2776	17472
1869.65	0.2228	17494
1870.15	0.1608	17517
1870.67	0.3246	17540
1871.22	0.4722	17565
1871.75	0.3646	17589
1872.25	0.3684	17612
1872.75	0.197	17635
1873.25	0.0778	17658
1873.75	0.1144	17681
1874.25	0.0626	17704
1874.78	0.074	17728
1875.33	0.1068	17753
1875.85	0.0868	17776
1876.35	0.0712	17800
1876.85	0.0874	17824
1877.35	0.0952	17849
1877.85	0.1118	17874
1878.35	0.1594	17900
1878.85	0.1696	17925
1879.35	0.1584	17949
1879.85	0.1808	17974
1880.35	0.228	17999
1880.89	0.248	18027
1881.44	0.3276	18053
1881.95	0.2044	18076
1882.45	0.275	18100
1882.95	0.1782	18125
1883.45	0.3452	18150
1883.95	0.2076	18175
1884.45	0.2016	18201
1885	0.1634	18228
1885.55	0.1822	18256
1886.05	0.1286	18281
1886.55	0.14	18303
1887.05	0.143	18324
1887.55	0.1328	18348
1888.05	0.1436	18373
1888.55	0.1918	18401
1889.05	0.4466	18429
1889.55	0.4174	18454
1890.05	0.4462	18478
1890.56	0.3628	18503
1891.11	0.1578	18530
1891.65	0.2126	18556
1892.15	0.2302	18580
1892.65	0.21	18606
1893.15	0.1566	18633
1893.65	0.2076	18659
1894.15	0.2258	18685
1894.65	0.327	18711
1895.15	0.1122	18737
1895.65	0.0984	18763
1896.15	0.1288	18790
1896.68	0.2052	18820
1897.23	0.232	18851
1897.75	0.1986	18877
1898.25	0.302	18902
1898.75	0.2046	18929
1899.25	0.1752	18955
1899.78	0.2022	18983
1900.33	0.2376	19010
1900.85	0.1538	19032
1901.35	0.121	19056
1901.85	0.1686	19081
1902.35	0.1336	19102
1902.89	0.1238	19124
1903.44	0.093	19148
1903.95	0.1084	19170
1904.45	0.1588	19191
1904.95	0.2218	19213
1905.45	0.267	19233
1905.95	0.2196	19253
1906.45	0.1922	19274
1907	0.1144	19298
1907.55	0.1204	19323
1908.05	0.184	19346
1908.55	0.2412	19366
1909.05	0.1284	19386
1909.55	0.174	19408
1910.05	0.1646	19430
1910.56	0.2776	19453
1911.11	0.284	19478
1911.65	0.2986	19505
1912.15	0.28	19528
1912.65	0.237	19549
1913.15	0.1036	19572
1913.65	0.0744	19600
1914.15	0.0774	19628
1914.65	0.1304	19653
1915.15	0.0714	19678
1915.65	0.118	19704
1916.15	0.1056	19731
1916.67	0.1102	19757
1917.22	0.1084	19784
1917.75	0.1158	19809
1918.25	0.103	19832
1918.75	0.1494	19855
1919.25	0.1196	19879
1919.75	0.1606	19904
1920.25	0.1264	19929
1920.75	0.1394	19956
1921.27	0.1168	19981
1921.82	0.2152	20005
1922.35	2.9426	20030
1922.85	0.1516	20054
1923.35	0.1094	20077
1923.85	0.1046	20099
1924.35	0.1202	20121
1924.89	0.1404	20145
1925.44	0.1562	20170
1925.95	0.2102	20193
1926.45	0.215	20217
1926.95	0.1226	20241
1927.45	0.123	20266
1927.95	0.0976	20291
1928.45	0.1562	20313
1928.95	0.1328	20336
1929.45	0.1298	20360
1929.95	0.1254	20385
1930.45	0.1434	20411
1931	0.085	20440
1931.55	0.1508	20466
1932.05	0.13	20490
1932.55	0.163	20513
1933.05	0.2706	20536
1933.55	0.2258	20561
1934.05	0.1936	20586
1934.56	0.1942	20611
1935.11	0.1502	20639
1935.65	0.1474	20666
1936.15	0.136	20691
1936.65	0.223	20717
1937.15	0.1668	20744
1937.65	0.1358	20772
1938.15	0.0994	20799
1938.67	0.1354	20823
1939.22	0.135	20850
1939.75	0.1116	20876
1940.25	0.1164	20902
1940.75	0.1576	20930
1941.25	0.167	20958
1941.75	0.149	20985
1942.25	0.2186	21011
1942.75	0.2714	21036
1943.25	0.2496	21062
1943.75	0.196	21087
1944.25	0.2038	21113
1944.76	0.1574	21140
1945.31	0.1804	21168
1945.85	0.1712	21194
1946.35	0.2076	21220
1946.85	0.167	21246
1947.35	0.0746	21273
1947.85	0.0716	21299
1948.35	0.0632	21325
1948.85	0.1364	21350
1949.35	0.1248	21377
1949.89	0.1322	21405
1950.44	0.1278	21434
1950.95	0.07	21461
1951.45	0.0706	21488
1951.95	0.0844	21515
1952.45	0.0634	21543
1953	0.106	21574
1953.55	0.1042	21606
1954.05	0.1272	21636
1954.55	0.1454	21664
1955.05	0.179	21692
1955.55	0.1134	21725
1956.05	0.1514	21758
1956.55	0.1402	21790
1957.05	0.1324	21821
1957.55	0.1278	21851
1958.05	0.1134	21881
1958.56	0.1526	21914
1959.11	0.1012	21948
1959.65	0.1366	21978
1960.15	0.182	22006
1960.65	0.2142	22034
1961.15	0.0846	22060
1961.65	0.088	22084
1962.15	0.076	22108
1962.67	0.1352	22133
1963.22	0.1188	22163
1963.75	0.1026	22198
1964.25	0.1136	22226
1964.75	0.1232	22249
1965.25	0.1176	22276
1965.75	0.0992	22307
1966.25	0.0842	22337
1966.75	0.2274	22368
1967.25	0.3264	22398
1967.75	0.246	22428
1968.25	0.2588	22457
1968.79	0.1374	22488
1969.34	0.1128	22519
1969.85	0.1546	22548
1970.35	0.117	22576
1970.85	0.1752	22604
1971.35	0.1	22632
1971.85	0.1042	22660
1972.35	0.1292	22689
1972.89	0.1952	22719
1973.44	0.1648	22748
1973.95	0.184	22774
1974.45	0.2454	22802
1974.95	0.104	22830
1975.45	0.1216	22858
1975.95	0.126	22885
1976.45	0.2548	22910
1976.95	0.2818	22934
1977.45	0.3254	22960
1977.95	0.1696	22987
1978.45	0.2036	23014
1979	0.2454	23044
1979.55	0.242	23072
1980.05	0.1992	23098
1980.55	0.2072	23124
1981.05	0.1238	23150
1981.55	0.1134	23181
1982.05	0.1354	23212
1982.55	0.1722	23237
1983.05	0.0904	23261
1983.59	0.1456	23285
1984.14	0.0992	23310
1984.65	0.2908	23336
1985.15	0.383	23362
1985.65	0.3252	23388
1986.15	0.3198	23415
1986.65	0.2026	23446
1987.15	0.1756	23476
1987.65	0.1646	23507
1988.15	0.1174	23538
1988.67	0.1224	23571
1989.22	0.177	23606
1989.75	0.1218	23640
1990.25	0.0726	23671
1990.75	0.1118	23700
1991.25	0.1118	23730
1991.75	0.0678	23761
1992.25	0.0918	23791
1992.75	0.0884	23821
1993.25	0.0562	23851
1993.75	0.0572	23881
1994.25	0.041	23909
1994.78	0.0564	23937
1995.33	0.0452	23965
1995.85	0.046	23992
1996.35	0.0388	24021
1996.85	0.0546	24051
1997.35	0.0536	24079
1997.85	0.089	24107
1998.35	0.1172	24134
1998.85	0.0784	24162
1999.35	0.0914	24191
1999.89	0.106	24223
2000.44	0.105	24260
2000.95	0.1644	24296
2001.45	0.1216	24328
2001.95	0.093	24360
2002.45	0.0926	24391
2002.95	0.0714	24422
2003.45	0.085	24456
2003.95	0.0772	24490
2004.45	0.1022	24520
2005	0.0992	24553
2005.55	0.0692	24587
2006.05	0.0612	24618
2006.55	0.1064	24649
2007.05	0.1586	24679
2007.55	0.1284	24712
2008.05	0.1184	24745
2008.56	0.1466	24776
2009.11	0.1208	24811
2009.65	0.1104	24848
2010.15	0.1174	24882
2010.65	0.16	24915
2011.15	0.083	24947
2011.65	0.1744	24978
2012.15	0.1472	25008
2012.65	0.1576	25039
2013.15	0.155	25071
2013.65	0.0948	25103
2014.15	0.062	25136
2014.67	0.0474	25170
2015.22	0.0426	25205
2015.75	0.0554	25240
2016.25	0.049	25273
2016.75	0.0604	25306
2017.25	0.0392	25339
2017.75	0.0348	25372
2018.25	0.0368	25405
2018.75	0.07	25440
2019.25	0.0994	25474
2019.75	0.0762	25508
2020.26	0.0892	25542
2020.81	0.0624	25579
2021.35	0.0358	25617
2021.85	0.037	25652
2022.35	0.1482	25685
2022.85	0.05	25718
2023.35	0.0504	25751
2023.85	0.0558	25783
2024.35	0.0848	25818
2024.89	0.0934	25855
2025.44	0.0724	25895
2025.95	0.0542	25931
2026.45	0.0788	25967
2026.95	0.0688	26002
2027.45	0.0772	26035
2027.95	0.0962	26069
2028.45	0.111	26101
2028.95	0.0834	26134
2029.45	0.0592	26167
2029.95	0.0756	26201
2030.45	0.1116	26234
2031	0.1788	26271
2031.55	0.1538	26307
2032.05	0.1342	26340
2032.55	0.1312	26375
2033.05	0.1522	26410
2033.55	0.2488	26444
2034.05	0.161	26479
2034.56	0.1478	26514
2035.11	0.1304	26552
2035.65	0.1436	26587
2036.15	0.1598	26618
2036.65	0.1422	26650
2037.15	0.119	26681
2037.65	0.1536	26710
2038.15	0.1666	26739
2038.65	0.2146	26771
2039.15	0.1354	26802
2039.65	0.1926	26833
2040.15	0.1654	26864
2040.67	0.1958	26897
2041.22	0.2616	26932
2041.75	0.2524	26965
2042.25	0.2358	26997
2042.75	0.141	27030
2043.25	0.0766	27062
2043.75	0.1476	27092
2044.25	0.1326	27123
2045.15	0.127	27180
2046.65	0.1026	27284
2047.75	0.1278	27363
2048.25	0.1152	27399
2048.75	0.08	27434
2049.25	0.1216	27469
2049.78	0.1744	27506
2050.33	0.847	27539
2050.85	0.392	27568
2051.35	0.5532	27596
2051.85	3.664	27624
2052.35	1.074	27650
2052.85	0.93	27675
2053.35	0.6238	27701
2053.85	4.5308	27728
2054.35	4.9766	27755
2054.89	1.8818	27784
2055.44	7.818	27814
2055.95	8.6106	27841
2056.45	0.22	27872
2056.95	3.3868	27903
2057.45	0.0454	27942
2057.95	0.0814	27983
2058.5	0.1038	28027
2059.05	0.1178	28070
2059.55	0.0994	28108
2060.05	0.1112	28147
2060.56	0.126	28184
2061.11	0.094	28225
2061.65	0.1024	28263
2062.15	0.0984	28297
2062.65	0.1354	28331
2063.15	0.1482	28363
2063.65	0.1212	28395
2064.15	0.1312	28426
2064.67	0.1216	28459
2065.22	0.096	28492
2065.75	0.201	28525
2066.25	0.1392	28553
2066.75	0.138	28578
2067.25	0.12	28605
2067.75	0.133	28634
2068.25	0.1544	28663
2068.78	0.1994	28692
2069.33	0.1212	28720
2069.85	0.1996	28744
2070.35	0.387	28767
2070.85	0.5554	28791
2071.35	0.6464	28814
2071.85	0.7256	28836
2072.35	0.5792	28860
2072.89	0.706	28886
2073.44	0.5456	28913
2073.95	14.9216	28939
2074.45	0.3128	28963
2074.95	2.5922	28988
2075.45	1.25	29009
2075.95	0.2298	29031
2076.5	0.1798	29060
2077.05	0.2758	29090
2077.55	0.1458	29121
2078.05	0.1106	29152
2078.56	0.1254	29186
2079.11	0.0606	29222
2079.65	0.0816	29255
2080.15	0.0602	29286
2080.65	0.1382	29316
2081.15	0.1128	29346
2081.65	0.1114	29377
2082.15	0.066	29409
2082.67	0.0984	29445
2083.22	0.1444	29486
2083.75	0.098	29528
2084.25	0.092	29567
2084.82	0.085	29610
2085.81	3.3876	29690
2086.83	0.1012	29767
2087.44	0.1006	29806
2087.95	0.0636	29837
2088.45	0.1016	29867
2088.95	0.1302	29897
2089.45	0.1206	29930
2089.95	0.0906	29964
2090.45	0.1056	29996
2091	0.0816	30032
2091.55	0.0538	30071
2092.05	0.0424	30105
2092.55	0.07	30138
2093.05	0.0636	30171
2093.55	0.0664	30204
2094.05	0.0884	30236
2094.56	0.071	30269
2095.11	0.0528	30305
2095.65	0.0588	30340
2096.15	0.0766	30373
2096.65	0.125	30407
2097.15	0.1096	30440
2097.65	0.1652	30474
2098.15	0.1664	30507
2098.67	0.2044	30538
2099.22	0.2976	30571
2099.78	0.1024	30606
2100.33	0.1088	30640
2100.85	0.1066	30673
2101.35	0.0896	30705
2101.85	0.1084	30736
2102.35	0.0904	30769
2102.85	0.1646	30804
2103.35	0.1544	30836
2103.85	0.1016	30867
2104.35	0.104	30899
2104.89	0.1238	30935
2105.44	0.104	30971
2105.95	0.0892	31005
2106.45	0.1062	31038
2106.95	0.1122	31072
2107.45	0.091	31104
2107.95	0.1062	31137
2108.45	0.1986	31168
2109	0.0746	31203
2109.55	0.085	31238
2110.05	0.08	31270
2110.55	0.1126	31302
2111.05	0.1374	31334
2111.55	0.1004	31366
2112.05	0.0774	31398
2112.56	0.1442	31431
2113.11	0.0834	31466
2113.65	0.079	31499
2114.15	0.0938	31530
2114.65	0.1888	31560
2115.15	0.2294	31590
2115.65	0.2834	31621
2116.15	0.2442	31653
2116.67	4.8538	31687
2117.22	11.0878	31721
2117.75	0.1598	31753
2118.25	0.167	31783
2118.75	0.2384	31813
2119.25	0.2092	31843
2119.75	0.3	31873
2120.25	0.3284	31902
2120.78	10.2896	31931
2121.33	5.7994	31963
2121.85	0.8064	31994
2122.35	0.3782	32023
2122.85	7.2152	32052
2123.35	6.3432	32083
2123.85	2.2304	32114
2124.35	0.5598	32144
2124.89	1.4296	32176
2125.44	8.4254	32210
2125.95	1.3762	32242
2126.45	2.4178	32273
2126.95	4.146	32305
2127.45	0.2036	32337
2127.95	0.1184	32369
2128.45	0.1146	32402
2129	0.1278	32438
2129.55	0.1084	32475
2130.05	0.117	32509
2130.55	0.107	32542
2131.05	0.066	32574
2131.55	0.0658	32608
2132.05	0.0882	32641
2132.56	0.0708	32677
2133.11	0.0492	32715
2133.65	0.058	32753
2134.15	0.0558	32787
2134.65	0.076	32821
2135.15	0.0926	32855
2135.65	0.0674	32889
2136.15	0.074	32923
2136.67	0.0988	32959
2137.22	0.1056	32995
2137.75	0.0742	33028
2138.25	0.1084	33061
2138.75	1.0204	33096
2139.25	2.151	33130
2139.75	1.2108	33165
2140.25	1.6838	33199
2140.78	6.7756	33236
2141.33	2.2644	33273
2141.85	2.484	33309
2142.35	0.4728	33343
2142.85	3.0494	33377
2143.35	7.3046	33411
2143.85	0.8956	33445
2144.35	7.954	33478
2144.89	8.5872	33513
2145.44	11.444	33549
2145.95	7.1202	33584
2146.45	1.4122	33617
2146.95	0.1866	33650
2147.45	0.1568	33684
2147.95	0.1348	33718
2148.45	0.124	33753
2149	0.1046	33791
2149.56	0.1096	33827
2150.11	0.1154	33863
2150.65	0.1342	33899
2151.15	0.1722	33932
2151.65	0.1868	33965
2152.15	0.1648	33998
2152.65	0.1562	34031
2153.16	0.078	34065
2153.71	0.0806	34101
2154.25	2.2612	34137
2154.78	0.1066	34171
2155.33	0.0522	34206
2155.85	0.0738	34237
2156.35	0.0712	34268
2156.85	0.1504	34300
2157.35	0.132	34333
2157.85	0.2006	34367
2158.35	0.229	34398
2158.89	0.2044	34430
2159.44	0.1968	34462
2159.95	5.7678	34493
2160.45	6.0104	34519
2160.95	12.8922	34544
2161.45	5.846	34566
2161.95	25.3218	34589
2162.45	17.1218	34616
2163	1.2776	34647
2163.55	7.874	34673
2164.05	0.734	34697
2164.55	6.617	34722
2165.05	4.4028	34746
2165.55	0.2042	34770
2166.05	1.3768	34794
2166.55	7.339	34819
2167.05	18.6984	34843
2167.56	5.03	34865
2168.11	0.5952	34889
2168.65	6.7962	34912
2169.15	13.8388	34934
2169.65	20.1692	34956
2170.15	3.043	34979
2170.67	1.3366	35004
2171.22	11.2586	35029
2171.75	4.0222	35052
2172.25	6.5748	35072
2172.75	1.0984	35093
2173.25	12.156	35114
2173.75	4.4542	35136
2174.25	9.258	35157
2174.78	13.4868	35177
2175.33	4.2704	35201
2175.85	6.7882	35225
2176.35	4.9244	35245
2176.85	6.1368	35264
2177.35	0.4438	35289
2177.85	0.2038	35316
2178.35	0.1156	35345
2178.89	0.1812	35378
2179.44	0.1204	35412
2179.95	0.1444	35444
2180.45	0.15	35475
2180.95	0.1838	35506
2181.45	0.1302	35537
2181.95	0.1124	35568
2182.45	0.09	35599
2183	0.1102	35633
2183.55	0.1578	35673
2184.05	0.113	35709
2184.55	0.1014	35741
2185.05	0.1198	35773
2185.55	0.1432	35801
2186.05	0.1376	35830
2186.56	0.2136	35859
2187.11	0.0934	35891
2187.65	0.1936	35923
2188.15	0.1058	35952
2188.65	0.1052	35984
2189.15	0.097	36014
2189.65	0.0904	36042
2190.15	0.1736	36069
2190.67	0.1574	36098
2191.22	0.1184	36128
2191.75	0.1704	36157
2192.25	0.113	36185
2192.75	0.3784	36212
2193.25	0.3418	36238
2193.75	0.47	36262
2194.25	4.0616	36288
2194.78	2.0252	36316
2195.33	1.8658	36344
2195.85	0.7886	36369
2196.35	1.6504	36394
2196.85	0.9018	36419
2197.35	4.17	36445
2197.85	0.2778	36473
2198.35	0.151	36500
2198.89	0.093	36530
2199.44	0.0736	36560
2200	2.7164	36591
2200.55	0.3272	36625
2201.05	0.3924	36655
2201.55	1.1346	36683
2202.05	20.2076	36712
2202.55	27.931	36742
2203.05	6.895	36772
2203.55	6.934	36798
2204.05	17.725	36825
2204.57	30.423	36852
2205.12	12.6588	36880
2205.65	18.7598	36908
2206.15	13.637	36935
2206.65	20.0606	36962
2207.15	16.539	36989
2207.65	13.6546	37016
2208.15	16.4914	37043
2208.67	5.162	37071
2209.22	5.701	37101
2209.75	2.327	37130
2210.25	13.0296	37155
2210.75	18.7592	37180
2211.25	10.0112	37206
2211.75	22.8552	37233
2212.25	13.2516	37261
2212.78	8.8018	37291
2213.33	1.9124	37322
2213.85	2.7758	37351
2214.35	9.0214	37378
2214.85	9.7246	37406
2215.35	15.0822	37433
2215.85	12.947	37461
2216.35	9.6682	37487
2216.89	19.8784	37514
2217.44	26.1254	37543
2217.95	10.7144	37571
2218.45	14.1232	37599
2218.95	7.5794	37627
2219.45	6.6006	37654
2219.95	14.926	37681
2220.45	17.5574	37710
2221	36.4404	37741
2221.55	17.9542	37776
2222.05	28.006	37807
2222.55	17.87	37839
2223.05	8.6806	37870
2223.55	14.9206	37902
2224.05	7.4382	37933
2224.56	18.4568	37965
2225.11	9.9806	38001
2225.65	4.4364	38038
2226.15	6.913	38073
2226.65	3.449	38108
2227.15	19.4844	38142
2227.65	21.1576	38177
2228.15	26.1852	38211
2228.67	14.5218	38247
2229.22	24.9146	38280
2229.75	30.8754	38307
2230.25	7.2792	38334
2230.75	6.9866	38361
2231.25	4.9664	38389
2231.75	0.4482	38418
2232.25	0.2926	38449
2232.78	0.1828	38484
2233.33	0.177	38521
2233.85	0.1716	38555
2234.35	0.1734	38591
2234.85	0.117	38628
2235.35	0.1266	38664
2235.85	0.148	38700
2236.35	0.1286	38740
2236.89	0.122	38784
2237.44	0.0856	38827
2237.95	0.1014	38867
2238.45	0.1256	38907
2238.95	0.1184	38948
2239.45	0.1662	38985
2239.95	0.1474	39022
2240.45	0.137	39061
2241	0.1666	39104
2241.55	0.1252	39147
2242.05	0.1448	39187
2242.55	0.1584	39228
2243.05	0.1422	39268
2243.55	0.1298	39310
2244.05	0.1098	39351
2244.56	0.109	39394
2245.11	0.0896	39440
2245.65	0.1204	39484
2246.15	0.1214	39525
2246.65	0.158	39564
2247.15	0.149	39605
2247.65	0.1224	39648
2248.15	0.1144	39692
2248.67	0.152	39740
2249.22	0.0768	39789
2250.08	0.2172	39858
2251.13	0.2958	39942
2251.85	4.0028	39995
2252.35	0.346	40028
2252.85	0.4574	40059
2253.35	1.1484	40091
2253.89	0.7986	40127
2254.44	0.6836	40160
2254.95	0.8868	40191
2255.45	0.832	40219
2255.95	0.6494	40247
2256.45	0.5746	40281
2256.95	0.4128	40316
2257.45	0.3414	40342
2257.97	0.3806	40369
2258.52	0.5272	40398
2259.05	0.4216	40424
2259.55	0.4518	40447
2260.05	0.415	40471
2260.55	0.5132	40497
2261.05	0.4688	40522
2261.56	0.4556	40544
2262.11	0.4146	40567
2262.65	0.3398	40591
2263.15	0.2708	40612
2263.65	0.3614	40634
2264.15	0.4218	40655
2264.65	0.3788	40674
2265.15	5.317	40695
2265.65	0.4952	40720
2266.16	0.4596	40744
2266.71	0.7308	40768
2267.25	0.8936	40792
2267.75	0.7936	40813
2268.25	1.1486	40834
2268.75	1.391	40855
2269.25	27.5176	40878
2269.75	0.469	40903
2270.25	3.9644	40928
2270.75	0.7436	40952
2271.26	5.3874	40976
2271.81	7.9968	41000
2272.35	10.0488	41022
2272.85	1.4014	41040
2273.35	3.0378	41062
2273.85	2.1062	41084
2274.38	9.4476	41107
2275.03	1.9582	41133
2275.65	1.0476	41158
2276.15	0.493	41180
2276.65	0.398	41205
2277.15	0.4348	41231
2277.65	0.2704	41256
2278.15	0.2678	41282
2278.67	0.3836	41308
2279.22	0.3478	41337
2279.75	0.337	41367
2280.25	0.2664	41394
2280.75	0.3336	41420
2281.25	0.309	41449
2281.75	0.3558	41481
2282.25	0.3624	41509
2282.78	0.2584	41534
2283.33	0.3464	41561
2283.85	0.4048	41588
2284.35	0.5112	41613
2284.85	0.8292	41638
2285.35	0.581	41663
2285.85	2.9742	41688
2286.35	1.6804	41713
2286.85	0.6346	41738
2287.35	0.424	41765
2287.89	0.444	41796
2288.44	0.6586	41826
2288.95	1.2826	41854
2289.45	1.394	41880
2289.95	2.0166	41905
2290.45	1.3178	41933
2290.95	8.1318	41961
2291.45	1.9702	41987
2291.95	11.5668	42012
2292.45	8.8868	42036
2293	10.4138	42062
2293.55	8.727	42091
2294.05	7.9636	42117
2294.55	28.6444	42139
2295.05	2.9204	42161
2295.55	2.2634	42186
2296.05	3.5338	42211
2296.55	4.3118	42236
2297.05	1.8622	42261
2297.56	6.841	42287
2298.11	5.9138	42314
2298.65	2.4996	42337
2299.15	3.7486	42358
2299.65	2.4998	42379
2300.15	1.6102	42400
2300.65	3.0052	42424
2301.15	9.1076	42448
2301.65	5.7252	42470
2302.15	6.6722	42493
2302.65	5.6682	42517
2303.15	6.5598	42541
2303.66	5.4432	42565
2304.21	0.4414	42595
2304.75	0.4254	42631
2305.25	0.3494	42664
2305.75	0.289	42697
2306.25	0.2764	42729
2306.75	0.317	42760
2307.25	0.349	42792
2307.75	0.2446	42823
2308.25	0.2512	42856
2308.78	0.2462	42890
2309.33	0.1958	42925
2309.85	0.2106	42958
2310.35	0.2416	42989
2310.85	0.2606	43021
2311.35	0.1984	43050
2311.85	0.2954	43077
2312.35	0.2488	43105
2312.89	0.4222	43136
2313.44	0.537	43169
2313.95	0.8152	43200
2314.57	15.1538	43234
2315.27	19.0986	43270
2315.85	33.737	43298
2316.35	10.1842	43323
2316.85	25.44	43348
2317.35	1.7094	43376
2317.85	0.5088	43404
2318.35	0.6262	43435
2318.89	0.5656	43470
2319.44	0.7716	43501
2319.95	1.4408	43529
2320.75	0.6488	43578
2321.55	0.8172	43624
2322.05	0.8164	43652
2322.55	7.1598	43683
2323.05	0.3446	43713
2323.55	0.2468	43743
2324.05	0.3816	43773
2324.56	8.7302	43801
2325.11	0.5894	43832
2325.65	1.3038	43865
2326.15	0.6854	43896
2326.65	0.5448	43924
2327.15	1.1064	43953
2327.65	1.2472	43982
2328.15	1.7204	44011
2328.65	2.1742	44037
2329.15	1.6026	44063
2329.67	3.7416	44093
2330.22	16.137	44123
2330.75	11.3026	44151
2331.25	28.899	44176
2331.75	31.4318	44199
2332.25	35.67	44222
2332.75	41.442	44245
2333.25	28.1442	44267
2333.75	16.6014	44288
2334.25	18.9986	44310
2334.78	20.4354	44334
2335.33	25.3182	44360
2335.85	11.4524	44386
2336.35	20.2424	44409
2336.85	7.1898	44432
2337.35	10.0094	44458
2337.85	5.7082	44484
2338.35	5.3808	44510
2338.89	22.7766	44537
2339.44	20.6454	44560
2339.95	23.8626	44581
2340.45	23.9094	44604
2341	43.612	44629
2341.55	32.6686	44655
2342.05	6.4414	44678
2342.55	18.1436	44699
2343.05	34.8828	44719
2343.55	22.7812	44741
2344.05	5.7194	44763
2344.56	31.3042	44786
2345.11	12.3296	44810
2345.65	23.4988	44834
2346.15	7.2618	44857
2346.65	7.619	44879
2347.15	8.6726	44902
2347.65	19.185	44925
2348.15	24.264	44948
2348.67	22.0412	44972
2349.22	25.6972	44996
2349.75	19.057	45018
2350.25	29.5194	45039
2350.75	33.4952	45060
2351.25	23.4852	45080
2351.75	8.9354	45098
2352.25	28.93	45118
2352.75	11.1664	45140
2353.25	28.673	45163
2353.75	10.6288	45186
2354.25	18.5236	45208
2354.78	24.8028	45230
2355.33	16.6586	45254
2355.85	7.9176	45276
2356.35	20.7008	45297
2356.85	23.7306	45316
2357.35	9.714	45335
2357.85	9.7642	45354
2358.37	4.729	45376
2358.92	0.432	45399
2359.45	0.1918	45429
2359.95	0.2076	45459
2360.45	0.1918	45488
2360.95	0.3094	45517
2361.45	0.2316	45549
2361.95	0.1982	45582
2362.45	0.5664	45617
2363	0.4788	45655
2363.55	0.3514	45691
2364.05	0.4034	45724
2364.55	0.3576	45757
2365.05	0.159	45791
2365.55	0.1754	45827
2366.05	0.1992	45863
2366.56	0.2546	45904
2367.11	0.3014	45948
2367.65	0.2636	45994
2368.15	0.2894	46038
2368.65	0.246	46083
2369.15	0.2076	46127
2369.65	0.1994	46166
2370.15	0.182	46206
2370.65	0.1964	46246
2371.15	0.2716	46287
2371.67	0.2452	46334
2372.22	0.2576	46381
2372.75	0.32	46424
2373.25	0.367	46466
2373.75	0.6254	46509
2374.25	0.4718	46548
2374.75	0.7394	46583
2375.25	0.5314	46616
2375.75	0.5286	46648
2376.25	0.4372	46678
2376.78	0.5316	46708
2377.33	0.5552	46743
2377.85	0.6358	46778
2378.35	1.055	46811
2378.85	8.4798	46844
2379.35	4.0006	46874
2379.85	14.5158	46902
2380.35	15.8062	46930
2380.85	3.2792	46958
2381.35	1.2688	46987
2381.89	4.7368	47019
2382.44	1.5228	47052
2382.95	1.1828	47083
2383.45	1.8518	47113
2383.95	10.1946	47143
2384.45	1.2458	47167
2384.95	0.824	47190
2385.45	0.5408	47216
2385.95	0.2716	47242
2386.45	0.2714	47273
2387	0.2768	47307
2387.55	0.2286	47353
2388.05	0.2344	47395
2388.55	0.3806	47432
2389.05	0.6238	47469
2389.55	0.5394	47501
2390.05	0.4726	47532
2390.56	0.4888	47562
2391.11	0.2152	47595
2391.65	0.2516	47628
2392.15	0.3776	47657
2392.65	0.4524	47685
2393.15	0.3844	47713
2393.65	0.4186	47745
2394.15	0.3882	47776
2394.67	0.513	47809
2395.22	0.4634	47844
2395.75	0.4128	47877
2396.25	2.1708	47908
2396.75	0.7162	47939
2397.25	0.4548	47971
2397.75	0.623	48004
2398.25	1.0162	48037
2398.78	0.61	48069
2399.33	0.9588	48105
2399.89	0.5282	48144
2400.44	1.0436	48178
2400.95	2.1694	48210
2401.45	1.0978	48243
2401.95	0.3914	48276
2402.45	0.5212	48306
2402.95	1.826	48336
2403.45	2.0538	48366
2403.98	0.7374	48399
2404.53	0.7064	48432
2405.05	0.7156	48465
2405.55	2.2116	48500
2406.05	5.6394	48535
2406.55	0.9608	48569
2407.05	0.8756	48604
2407.55	0.654	48639
2408.05	0.537	48674
2408.56	8.4382	48705
2409.11	6.3666	48738
2409.65	0.552	48773
2410.15	0.5694	48805
2410.65	4.7412	48839
2411.15	1.3828	48872
2411.65	4.4806	48904
2412.15	0.866	48935
2412.67	0.5434	48968
2413.22	0.4004	49003
2413.75	0.8768	49040
2414.25	0.3548	49075
2414.75	1.6484	49111
2415.25	0.9604	49144
2415.75	6.9818	49175
2416.25	16.5	49206
2416.75	13.6876	49239
2417.25	16.3314	49271
2417.78	20.4518	49306
2418.33	19.5688	49340
2418.85	15.9122	49371
2419.35	13.1674	49398
2419.85	16.0014	49424
2420.35	18.646	49450
2420.85	16.7254	49475
2421.35	16.2458	49503
2421.85	15.9448	49532
2422.35	15.1884	49561
2422.89	15.9826	49591
2423.44	16.0126	49621
2423.95	19.7832	49649
2424.45	23.4118	49677
2424.95	18.648	49705
2425.45	42.1776	49735
2425.95	22.9774	49765
2426.45	15.286	49796
2427	8.7986	49830
2427.55	14.3238	49860
2428.05	13.605	49887
2428.55	5.2352	49916
2429.05	13.2146	49946
2429.55	14.1968	49975
2430.05	11.8374	50005
2430.56	6.4712	50037
2431.11	14.7504	50091
2431.65	25.9284	50222
2432.15	28.391	50319
2432.65	18.4264	50360
2433.15	22.3886	50400
2433.65	18.6804	50441
2434.15	19.1132	50482
2434.66	10.5454	50523
2435.21	10.747	50568
2435.75	26.6454	50612
2436.25	12.32	50653
2436.75	25.2762	50693
2437.25	27.3694	50734
2437.75	20.186	50774
2438.25	25.218	50815
2438.75	15.3016	50856
2439.25	26.369	50896
2439.76	30.5562	50938
2440.31	14.9042	50983
2440.85	14.1484	51027
2441.35	24.0898	51067
2441.85	23.5388	51108
2442.35	26.6656	51148
2442.85	15.457	51189
2443.35	21.2778	51230
2443.85	21.3168	51270
2444.35	17.2566	51311
2444.89	18.9938	51355
2445.44	22.0942	51400
2445.95	15.934	51441
2446.45	10.1772	51482
2446.95	1.4144	51522
2447.45	9.8278	51563
2447.95	14.2904	51604
2448.45	14.0818	51644
2449	6.6316	51689
2449.56	8.9094	51735
2450.11	8.832	51779
2450.65	6.523	51823
2451.15	0.6084	51864
2451.65	7.528	51905
2452.15	10.0594	51948
2452.65	10.1034	51999
2453.15	11.5108	52049
2453.65	6.471	52099
2454.17	15.616	52152
2454.75	0.4486	52210
2455.33	0.3502	52269
2455.85	0.2622	52321
2456.35	0.3318	52371
2456.85	0.2246	52422
2457.35	0.1708	52472
2457.85	0.1596	52523
2458.35	0.1756	52573
2458.85	0.298	52623
2459.35	0.3114	52674
2459.89	0.5306	52728
2460.44	3.9562	52784
2460.95	2.5736	52835
2461.45	0.3678	52886
2461.95	0.2762	52936
2462.45	0.3256	53004
2462.95	0.2456	53073
2463.45	0.2346	53143
2463.95	0.2512	53212
2464.5	1.673	53289
2465.05	12.9308	53365
2465.55	7.9954	53434
2466.05	1.6902	53504
2466.55	1.3352	53573
2467.05	1.4748	53643
2467.55	4.8068	53712
2468.05	3.3284	53782
2468.56	0.5226	53853
2469.11	0.1546	53929
2469.65	0.1942	54004
2470.15	0.203	54074
2470.65	0.31	54143
2471.15	0.2642	54213
2471.65	0.2416	54282
2472.15	0.2468	54350
2472.65	0.1922	54413
2473.15	0.2294	54477
2473.67	0.254	54542
2474.22	0.3312	54612
2474.75	0.4396	54679
2475.25	0.529	54742
2475.75	0.9954	54806
2476.25	1.1086	54869
2476.78	0.6208	54936
2477.33	0.5074	55006
2477.85	0.3764	55072
2478.35	0.577	55135
2478.85	0.6472	55198
2479.35	0.6262	55262
2479.85	3.835	55325
2480.35	5.3214	55388
2480.85	0.85	55451
2481.38	7.1308	55519
2481.93	6.4996	55588
2482.45	0.5836	55645
2482.95	1.7582	55698
2483.45	0.8848	55752
2483.95	0.4716	55805
2484.45	0.9822	55859
2484.95	3.7818	55912
2485.45	0.6298	55965
2485.99	0.5574	56023
2486.54	6.0154	56082
2487.05	2.6962	56136
2487.55	6.8022	56190
2488.05	21.3184	56243
2488.55	18.9258	56297
2489.05	14.3224	56350
2489.55	23.288	56403
2490.05	5.9546	56457
2490.56	1.2204	56511
2491.11	12.7662	56570
2491.65	4.3006	56628
2492.15	0.4186	56681
2492.65	1.2466	56736
2493.15	30.744	56791
2493.65	18.1756	56845
2494.15	5.5218	56900
2494.67	0.3062	56957
2495.22	0.279	57017
2495.75	0.242	57075
2496.25	0.3094	57130
2496.75	0.6384	57184
2497.25	13.1796	57239
2497.75	26.6522	57293
2498.25	19.895	57348
2498.78	15.5428	57406
2499.33	8.7266	57466
2499.89	12.5988	57527
2500.44	18.4102	57587
2500.95	9.4042	57643
2501.45	10.6166	57698
2501.95	3.4272	57753
2502.45	2.6014	57812
2502.95	1.553	57872
2503.45	0.3646	57933
2503.95	0.39	57993
2504.45	1.0218	58053
2505	2.8328	58119
2505.55	12.4302	58185
2506.05	2.4178	58246
2506.55	0.7054	58306
2507.05	0.2672	58366
2507.55	0.2188	58426
2508.05	0.267	58486
2508.55	0.2248	58547
2509.05	0.2314	58607
2509.56	0.2304	58668
2510.11	0.2326	58734
2510.65	0.2408	58799
2511.15	0.2554	58860
2511.65	0.2986	58920
2512.15	0.3398	58981
2512.65	0.3196	59046
2513.15	0.1456	59110
2513.65	0.1896	59174
2514.15	0.181	59238
2514.67	0.2322	59305
2515.22	0.2382	59376
2515.75	0.228	59444
2516.25	0.2386	59508
2516.75	0.2776	59572
2517.25	0.2392	59637
2517.75	0.1884	59701
2518.25	0.2242	59765
2518.75	0.2192	59829
2519.25	0.189	59894
2519.78	0.1726	59962
2520.33	0.1856	60032
2520.85	0.2332	60099
2521.35	0.218	60163
2521.85	0.1872	60228
2522.35	0.1768	60296
2522.85	0.165	60365
2523.35	0.1574	60434
2523.85	0.1364	60504
2524.39	0.154	60578
2524.94	0.2472	60655
2525.45	0.2296	60726
2525.95	0.222	60795
2526.45	0.2286	60864
2526.95	0.1822	60934
2527.45	0.1784	61003
2527.95	0.1612	61072
2528.45	0.1738	61142
2529	0.1802	61218
2529.55	0.1896	61294
2530.05	0.1838	61364
2530.55	0.2542	61433
2531.05	0.265	61502
2531.55	0.2054	61572
2532.05	0.2156	61640
2532.56	0.3474	61700
2533.11	0.199	61765
2533.65	0.3116	61829
2534.15	0.5184	61887
2534.65	0.5508	61946
2535.15	0.4966	62005
2535.65	0.2318	62064
2536.15	0.1884	62123
2536.65	0.218	62182
2537.15	0.1874	62241
2537.67	0.1512	62302
2538.22	0.1616	62367
2538.75	0.2492	62430
2539.25	0.1908	62489
2539.75	0.1794	62548
2540.25	0.1798	62607
2540.75	0.1754	62666
2541.25	0.1216	62725
2541.75	0.1296	62784
2542.25	0.1398	62845
2542.78	0.164	62912
2543.33	0.1312	62982
2543.85	0.1148	63047
2544.35	0.1056	63111
2544.85	0.1526	63174
2545.35	0.1376	63237
2545.85	0.2214	63301
2546.35	0.2266	63364
2546.89	0.2068	63433
2547.44	0.1798	63502
2547.95	0.1826	63567
2548.45	0.2084	63630
2548.95	0.2348	63694
2549.45	0.2364	63757
2550	0.2234	63827
2550.55	0.2782	63896
2551.05	0.2936	63960
2551.55	0.2562	64023
2552.05	0.199	64088
2552.55	0.2228	64171
2553.05	0.1742	64254
2553.55	0.1594	64337
2554.05	0.1516	64419
2554.56	0.1928	64504
2555.11	0.2804	64595
2555.65	0.2806	64684
2556.15	0.2986	64767
2556.65	0.3068	64850
2557.15	0.2622	64933
2557.65	0.2344	65016
2558.15	0.273	65098
2558.65	0.2444	65181
2559.15	0.1142	65264
2559.67	0.1712	65350
2560.22	0.2046	65441
2560.75	0.2812	65529
2561.25	0.2872	65612
2561.75	0.3924	65695
2562.25	0.459	65772
2562.75	0.7296	65843
2563.25	0.3594	65915
2563.75	0.2452	65986
2564.25	0.2388	66058
2564.78	0.2006	66134
2565.33	0.154	66213
2565.85	0.15	66287
2566.35	0.1984	66358
2566.85	0.3086	66430
2567.35	0.3708	66502
2567.85	0.4794	66573
2568.35	0.5276	66645
2568.89	0.7298	66722
2569.44	0.5564	66801
2569.95	1.0372	66874
2570.45	13	66945
2570.95	1.2936	67017
2571.45	1.4396	67088
2571.95	0.7514	67160
2572.45	1.4392	67224
2573	3.6582	67294
2573.55	13.8008	67364
2574.05	1.435	67427
2574.55	2.5692	67491
2575.05	1.4296	67554
2575.55	13.7284	67618
2576.05	21.9268	67681
2576.56	3.3352	67746
2577.11	1.4872	67816
2577.65	1.4736	67885
2578.15	13.9538	67948
2578.65	8.941	68012
2579.15	13.8188	68075
2579.65	12.2746	68139
2580.15	24.102	68202
2580.67	20.3332	68268
2581.22	18.0008	68338
2581.75	13.7498	68405
2582.25	4.936	68476
2582.75	3.5672	68553
2583.25	2.1884	68631
2583.75	0.5838	68708
2584.25	0.2328	68786
2584.78	0.2156	68868
2585.33	0.2588	68953
2585.85	0.2838	69034
2586.35	0.3012	69112
2586.85	0.2676	69189
2587.35	0.2098	69267
2587.85	0.187	69344
2588.35	0.1934	69422
2588.89	0.1628	69506
2589.44	0.1378	69591
2589.95	0.125	69670
2590.45	0.1456	69748
2590.95	6.6006	69825
2591.45	1.2608	69903
2591.95	0.947	69980
2592.45	4.2294	70059
2592.99	5.2626	70145
2593.54	16.9376	70231
2594.05	9.2708	70312
2594.55	25.0544	70391
2595.05	22.4906	70470
2595.55	27.0716	70549
2596.05	20.9958	70628
2596.55	18.4836	70707
2597.1	18.3126	70794
2597.65	15.952	70881
2598.15	38.0014	70960
2598.65	15.4742	71039
2599.15	16.6224	71118
2599.67	22.928	71201
2600.22	25.073	71288
2600.75	31.0736	71371
2601.25	9.5304	71450
2601.75	19.6028	71529
2602.25	32.4876	71607
2602.75	31.4338	71683
2603.25	17.3528	71758
2603.75	19.0988	71834
2604.27	21.529	71913
2604.82	26.8112	71996
2605.35	26.5222	72077
2605.85	24.2162	72152
2606.35	13.2148	72228
2606.85	13.8464	72304
2607.35	18.21	72380
2607.85	12.1104	72455
2608.35	15.4524	72526
2608.89	18.0308	72599
2609.44	20.228	72674
2609.95	15.9236	72744
2610.45	20.9144	72812
2610.95	16.0134	72880
2611.45	14.7364	72948
2611.95	1.4886	73017
2612.45	0.2888	73085
2613	0.305	73160
2613.55	0.2284	73235
2614.05	0.2418	73304
2614.55	0.2132	73386
2615.05	0.125	73468
2615.55	0.1046	73550
2616.05	0.1258	73632
2616.56	0.1574	73715
2617.11	0.1792	73805
2617.65	0.1952	73893
2618.15	0.4602	73975
2618.65	0.8532	74057
2619.15	0.8392	74139
2619.65	7.321	74221
2620.15	18.0466	74302
2620.67	12.084	74385
2621.22	0.434	74473
2621.75	0.349	74558
2622.25	0.3192	74638
2622.75	1.2426	74718
2623.25	4.4484	74799
2623.75	2.0506	74879
2624.25	3.8534	74959
2624.78	7.0186	75044
2625.33	9.9202	75132
2625.85	16.494	75215
2626.35	21.362	75296
2626.85	15.0476	75377
2627.35	11.25	75458
2627.85	17.7238	75540
2628.35	5.8528	75621
2628.89	5.83	75709
2629.44	7.2244	75798
2629.95	9.3776	75881
2630.45	0.3582	75962
2630.95	0.693	76043
2631.45	1.8146	76125
2631.95	15.0288	76206
2632.45	6.8426	76283
2633	1.2716	76368
2633.55	1.0434	76452
2634.05	1.341	76529
2634.55	7.3454	76605
2635.05	12.8626	76682
2635.55	18.923	76759
2636.05	27.9168	76836
2636.56	3.4336	76914
2637.11	3.0718	76998
2637.65	13.2874	77081
2638.15	25.5972	77158
2638.65	21.6708	77234
2639.15	23.1494	77309
2639.65	27.822	77385
2640.15	29.3158	77461
2640.67	22.064	77540
2641.22	16.4566	77623
2641.75	17.254	77704
2642.25	19.888	77780
2642.78	26.915	77860
2643.33	29.5072	77943
2643.85	27.7404	78022
2644.35	33.6304	78102
2644.85	33.0206	78184
2645.35	27.0168	78266
2645.85	29.7666	78348
2646.36	26.6482	78432
2646.91	26.7542	78522
2647.45	31.6394	78610
2647.95	14.374	78692
2648.45	21.6054	78774
2648.95	27.2564	78856
2649.45	25.9086	78938
2650	20.1098	79028
2650.55	28.5112	79118
2651.05	21.4412	79200
2651.55	21.47	79282
2652.05	25.096	79365
2652.55	24.9576	79458
2653.05	34.985	79551
2653.55	26.0154	79643
2654.05	26.3854	79736
2654.56	26.4918	79830
2655.11	15.941	79932
2655.65	22.7946	80032
2656.15	28.4304	80125
2656.65	22.5728	80218
2657.15	26.6198	80310
2657.65	29.566	80403
2658.17	34.4692	80500
2658.72	34.0748	80604
2659.25	27.1636	80704
2659.75	26.8168	80799
2660.25	35.7318	80894
2660.75	42.6844	80988
2661.25	45.4746	81083
2661.75	43.9516	81177
2662.26	43.928	81274
2662.81	33.4096	81378
2663.35	38.4292	81480
2663.85	43.7826	81575
2664.35	39.3502	81671
2664.85	36.7046	81768
2665.35	34.5806	81865
2665.85	39.2412	81962
2666.35	36.374	82059
2666.89	36.4694	82164
2667.44	41.306	82270
2667.95	40.313	82369
2668.45	43.3042	82466
2668.95	33.0212	82563
2669.45	32.1716	82660
2669.95	33.4016	82757
2670.45	33.3824	82856
2671	37.5706	82964
2671.55	32.5072	83073
2672.05	35.7816	83172
2672.55	32.0952	83270
2673.05	33.4442	83369
2673.55	28.4282	83468
2674.05	30.127	83566
2674.56	33.588	83667
2675.11	28.5572	83775
2675.65	24.4546	83882
2676.15	1.3576	83982
2676.65	0.477	84087
2677.15	0.32	84191
2677.65	9.114	84295
2678.15	15.221	84399
2678.67	0.9364	84508
2679.22	0.4718	84622
2679.75	0.3766	84733
2680.25	0.4146	84837
2680.75	0.37	84941
2681.25	0.243	85046
2681.75	0.223	85150
2682.25	0.2358	85256
2682.78	0.2776	85372
2683.33	0.3292	85491
2683.85	0.4028	85605
2684.35	0.3428	85714
2684.85	0.2096	85822
2685.35	0.1496	85931
2685.85	0.186	86040
2686.36	0.1786	86151
2686.91	0.1904	86271
2687.45	0.1348	86388
2687.95	0.1456	86497
2688.45	0.1532	86610
2688.95	0.2214	86723
2689.45	0.2298	86837
2689.95	0.1744	86950
2690.45	0.165	87063
2691	0.1648	87188
2691.55	0.286	87313
2692.05	1.526	87426
2692.55	1.7018	87539
2693.05	0.64	87653
2693.55	2.099	87766
2694.05	14.3928	87879
2694.58	8.2384	88001
2695.13	21.1092	88127
2695.65	15.945	88246
2696.15	17.217	88361
2696.65	23.8796	88476
2697.15	23.3852	88590
2697.65	13.1944	88705
2698.15	24.7608	88820
2698.67	35.329	88939
2699.22	29.7936	89065
2699.78	24.208	89194
2700.33	27.6888	89319
2700.85	30.3272	89438
2701.35	35.8092	89552
2701.85	43.6202	89666
2702.35	41.4362	89780
2702.85	34.4018	89894
2703.35	28.69	90008
2703.85	26.724	90122
2704.35	12.2518	90236
2704.89	10.3284	90359
2705.44	20.6768	90487
2705.95	25.2866	90607
2706.45	16.5174	90724
2707	14.313	90853
2707.55	14.4908	90982
2708.05	24.0472	91099
2708.55	15.4476	91216
2709.05	11.3742	91333
2709.55	4.541	91451
2710.05	11.549	91568
2710.56	22.6202	91687
2711.11	25.42	91816
2711.65	25.955	91943
2712.15	13.1202	92062
2712.65	24.2572	92186
2713.15	30.8084	92310
2713.65	37.5508	92433
2714.15	15.6126	92557
2714.67	12.2744	92686
2715.22	5.004	92822
2715.75	9.334	92953
2716.25	12.2048	93077
2716.75	25.2594	93201
2717.25	17.549	93324
2717.75	20.5334	93448
2718.3	30.8224	93587
2718.85	28.216	93727
2719.35	30.0922	93855
2719.85	32.1658	93983
2720.35	23.0736	94111
2720.89	28.983	94249
2721.44	35.947	94389
2721.95	41.213	94520
2722.45	46.8112	94648
2722.95	29.9816	94776
2723.45	31.746	94903
2723.95	30.5532	95031
2724.45	36.325	95159
2725	35.4274	95299
2725.55	19.5996	95438
2726.05	52.777	95566
2726.55	37.7742	95693
2727.05	39.2292	95820
2727.55	30.198	95947
2728.05	39.205	96075
2728.56	41.9836	96205
2729.11	53.7696	96344
2729.65	48.7958	96482
2730.15	40.0598	96609
2730.65	50.1604	96736
2731.15	37.4814	96864
2731.65	42.0832	96991
2732.15	53.1466	97117
2732.66	50.5796	97244
2733.21	54.0488	97380
2733.75	51.1454	97514
2734.25	49.9888	97639
2734.75	51.52	97763
2735.25	54.9306	97887
2735.75	55.1566	98011
2736.25	59.819	98132
2736.78	56.1734	98257
2737.33	47.588	98388
2737.85	46.252	98511
2738.35	48.8644	98629
2738.85	46.8448	98747
2739.35	46.5646	98865
2739.85	56.5458	98984
2740.35	56.6364	99095
2740.89	48.7906	99211
2741.44	51.1774	99330
2741.95	46.9436	99440
2742.45	46.0748	99548
2742.95	50.2492	99656
2743.45	53.2358	99764
2743.95	49.7666	99872
2744.45	46.9062	99969
2745	45.2706	100073
2745.55	57.117	100178
2746.05	47.603	100273
2746.55	47.1372	100368
2747.05	36.0446	100463
2747.55	32.3012	100558
2748.06	18.5234	100655
2748.61	4.7396	100761
2749.15	0.9728	100866
2749.67	0.833	100966
2750.22	0.8732	101073
2750.75	0.748	101175
2751.25	0.4118	101272
2751.75	0.3304	101369
2752.25	0.306	101465
2752.75	0.6332	101560
2753.25	0.9162	101656
2753.75	5.4708	101752
2754.26	10.484	101849
2754.81	1.1084	101954
2755.35	0.6278	102058
2755.85	0.4674	102153
2756.35	0.5238	102249
2756.85	7.7328	102345
2757.35	34.8356	102440
2757.85	32.8876	102536
2758.35	9.3092	102631
2758.89	0.7834	102735
2759.44	0.5042	102840
2759.95	0.5616	102937
2760.45	3.509	103034
2760.95	22.942	103131
2761.45	1.5874	103228
2761.95	19.0454	103324
2762.45	29.3034	103421
2763	18.1736	103528
2763.55	3.055	103634
2764.05	24.6252	103731
2764.55	31.5586	103827
2765.05	29.145	103924
2765.55	35.5406	104021
2766.05	35.2646	104118
2766.56	32.593	104216
2767.11	26.033	104323
2767.65	24.2518	104427
2768.15	23.942	104522
2768.65	37.0926	104613
2769.15	44.377	104704
2769.65	36.9944	104794
2770.15	24.0432	104885
2770.67	32.8396	104980
2771.22	43.5146	105079
2771.75	46.988	105176
2772.25	45.1384	105266
2772.75	44.2798	105357
2773.25	42.0596	105448
2773.75	42.9342	105539
2774.25	47.3352	105629
2774.78	38.4772	105726
2775.33	42.3724	105825
2775.85	41.7032	105920
2776.35	36.0384	106011
2776.85	31.9568	106101
2777.36	38.5232	106194
2777.91	26.9598	106294
2778.45	20.8106	106392
2778.95	28.172	106483
2779.45	15.5982	106574
2779.95	18.3558	106664
2780.45	29.2048	106755
2781	26.2532	106855
2781.55	25.6128	106955
2782.05	26.0436	107046
2782.55	18.1276	107137
2783.05	26.7362	107227
2783.55	21.1854	107318
2784.05	18.2112	107409
2784.56	17.3844	107502
2785.11	14.042	107602
2785.65	6.2242	107701
2786.15	8.8628	107792
2786.65	14.2456	107883
2787.15	21.804	107974
2787.65	24.5126	108065
2788.15	25.0526	108156
2788.67	27.977	108251
2789.22	36.8646	108351
2789.75	43.1046	108447
2790.25	49.7258	108538
2790.75	48.0784	108629
2791.25	41.8598	108720
2791.75	44.421	108811
2792.25	48.6758	108878
2792.78	51.1526	108924
2793.33	46.172	108971
2793.85	50.2806	109015
2794.35	48.5614	109058
2794.85	25.0854	109100
2795.35	32.7504	109143
2795.85	38.5092	109186
2796.35	39.3134	109228
2796.89	39.277	109274
2797.44	42.7972	109321
2797.95	41.2264	109365
2798.45	38.6622	109408
2798.95	33.4238	109450
2799.45	11.1924	109493
2800	2.291	109540
2800.55	1.4936	109639
2801.05	37.5408	109729
2801.55	32.2362	109818
2802.05	35.8062	109908
2802.56	0.893	110000
2803.11	0.5622	110099
2803.65	0.7194	110196
2804.15	2.6842	110285
2804.65	32.0366	110375
2805.15	37.1218	110465
2805.65	24.8482	110555
2806.15	0.374	110645
2806.67	0.3882	110738
2807.22	0.3468	110837
2807.75	0.4092	110932
2808.25	0.433	999999
2808.75	0.4664	999999
2809.25	0.2874	999999
2809.75	0.2162	999999
2810.25	0.2398	999999
2810.78	0.2964	999999
2811.33	0.267	999999
2811.85	0.859	999999
2812.35	1.6816	999999
2812.85	2.1518	999999
2813.35	1.8932	999999
2813.88	1.724	999999
2814.43	1.2864	999999
2814.95	1.2116	999999
2815.45	31.1302	999999
2815.95	35.888	999999
2816.45	33.6072	999999
2816.95	25.4618	999999
2817.45	20.3608	999999
2817.95	27.978	999999
2818.46	37.2662	999999
2819.01	46.936	999999
2819.55	38.1226	999999
2820.05	36.0776	999999
2820.55	43.6134	999999
2821.05	41.3796	999999
2821.55	40.7952	999999
2822.05	41.5828	999999
2822.57	42.7942	999999
2823.12	35.9962	999999
2823.65	26.4944	999999
2824.15	14.2734	999999
2824.65	30.7154	999999
2825.15	32.3226	999999
2825.65	21.6408	999999
2826.15	32.94	999999
2826.67	35.119	999999
2827.22	39.002	999999
2827.75	39.4366	999999
2828.25	34.7358	999999
2828.75	11.7146	999999
2829.25	1.0918	999999
2829.75	1.6932	999999
2830.25	13.4648	999999
2830.78	24.8146	999999
2831.33	24.5422	999999
2831.85	22.1366	999999
2832.35	26.9204	999999
2832.85	34.7218	999999
2833.35	14.4132	999999
2833.85	4.0306	999999
2834.35	30.687	999999
2834.89	34.3348	999999
2835.44	16.7108	999999
2835.95	38.7756	999999
2836.45	35.5426	999999
2837	14.0682	999999
2837.55	37.0434	999999
2838.05	37.0438	999999
2838.55	24.797	999999
2839.05	35.498	999999
2839.55	49.0524	999999
2840.05	51.4896	999999
2840.56	52.004	999999
2841.11	52.6198	999999
2841.65	53.186	999999
2842.15	50.5136	999999
2842.65	50.3116	999999
2843.15	47.2242	999999
2843.65	46.5434	999999
2844.15	46.4466	999999
2844.67	50.3318	999999
2845.22	55.7462	999999
2845.75	55.6118	999999
2846.25	54.609	999999
2846.78	54.2198	999999
2847.33	54.863	999999
2847.85	54.3038	999999
2848.35	55.4876	999999
2848.85	18.174	999999
2849.35	1.2444	999999
2849.89	1.4866	999999
2850.44	0.8524	999999
2850.95	0.846	999999
2851.45	0.5512	999999
2851.95	0.3474	999999
2852.45	1.0338	999999
2852.95	12.5094	999999
2853.45	18.734	999999
2853.95	31.825	999999
2854.45	51.0478	999999
2855	22.4036	999999
2855.55	0.806	999999
2856.05	0.5036	999999
2856.55	0.647	999999
2857.05	0.3136	999999
2857.55	0.4198	999999
2858.05	1.596	999999
2858.56	4.8526	999999
2859.11	13.5288	999999
2859.65	42.4968	999999
2860.15	59.1408	999999
2860.65	59.3056	999999
2861.15	31.3168	999999
2861.65	0.9182	999999
2862.15	3.8712	999999
2862.67	39.535	999999
2863.22	36.236	999999
2863.75	4.3914	999999
2864.25	1.8644	999999
2864.75	3.5152	999999
2865.25	7.7604	999999
2865.75	6.0584	999999
2866.25	11.696	999999
2866.78	5.178	999999
2867.33	1.394	999999
2867.85	1.1774	999999
2868.35	1.0086	999999
2868.85	0.6452	999999
2869.35	0.839	999999
2869.85	5.8628	999999
2870.35	5.0696	999999
2870.89	18.6334	999999
2871.44	17.0336	999999
2871.95	3.0706	999999
2872.45	0.8874	999999
2873	0.8278	999999
2873.55	0.9354	999999
2874.05	2.7118	999999
2874.55	4.672	999999
2875.05	1.33	999999
2875.55	2.2434	999999
2876.05	11.176	999999
2876.56	4.3232	999999
2877.11	17.4926	999999
2877.65	11.7658	999999
2878.15	0.787	999999
2878.65	0.7018	999999
2879.15	0.9028	999999
2879.65	2.1216	999999
2880.17	1.7782	999999
2880.72	1.3868	999999
2881.25	6.124	999999
2881.75	22.624	999999
2882.25	13.6312	999999
2882.75	40.4118	999999
2883.25	31.586	999999
2883.75	9.9168	999999
2884.25	21.8856	999999
2884.78	24.849	999999
2885.33	23.8604	999999
2885.85	28.1956	999999
2886.35	34.1492	999999
2886.85	40.535	999999
2887.35	32.4356	999999
2887.85	27.3798	999999
2888.35	23.8828	999999
2888.89	25.9432	999999
2889.44	19.821	999999
2889.95	9.3664	999999
2890.45	25.724	999999
2890.95	24.1672	999999
2891.45	46.6114	999999
2891.95	22.8198	999999
2892.5	11.2526	999999
2893.05	0.4596	999999
2893.55	0.3986	999999
2894.05	12.6066	999999
2894.56	1.606	999999
2895.11	3.5998	999999
2895.65	2.1126	999999
2896.15	10.3412	999999
2896.65	6.6152	999999
2897.15	0.2226	999999
2897.65	0.1568	999999
2898.15	0.1272	999999
2898.67	0.2432	999999
2899.22	0.1822	999999
2899.78	0.1936	999999
2900.33	0.1498	999999
2900.85	0.2508	999999
2901.35	0.2012	999999
2901.85	0.154	999999
2902.35	0.134	999999
2902.85	0.1316	999999
2903.35	0.1134	999999
2903.85	0.1332	999999
2904.37	0.1246	999999
2904.92	0.1332	999999
2905.45	0.1288	999999
2905.95	0.1344	999999
2906.45	0.2554	999999
2906.95	0.1562	999999
2907.45	0.1844	999999
2907.95	0.1632	999999
2908.45	0.2258	999999
2909	0.1656	999999
2909.55	0.1736	999999
2910.05	0.1456	999999
2910.55	0.2286	999999
2911.05	0.2234	999999
2911.55	0.1334	999999
2912.05	0.1704	999999
2912.56	0.2326	999999
2913.11	0.471	999999
2913.65	0.2768	999999
2914.15	0.637	999999
2914.65	0.6386	999999
2915.15	0.332	999999
2915.65	0.3484	999999
2916.15	0.4896	999999
2916.65	0.294	999999
2917.15	0.2276	999999
2917.67	0.185	999999
2918.22	0.1776	999999
2918.75	0.29	999999
2919.25	0.2664	999999
2919.75	0.2262	999999
2920.25	0.3412	999999
2920.75	0.84	999999
2921.25	14.0972	999999
2921.75	26.2464	999999
2922.25	8.7516	999999
2922.78	2.4454	999999
2923.33	0.2616	999999
2923.85	0.1866	999999
2924.35	0.1786	999999
2924.85	0.2756	999999
2925.35	0.1884	999999
2925.85	0.1682	999999
2926.35	0.265	999999
2926.85	0.3968	999999
2927.35	0.2814	999999
2927.89	0.2556	999999
2928.44	0.2568	999999
2928.95	0.295	999999
2929.45	0.2082	999999
2929.95	0.261	999999
2930.45	0.2448	999999
2930.95	0.2096	999999
2931.45	0.243	999999
2931.95	0.2234	999999
2932.47	0.3024	999999
2933.02	0.3336	999999
2933.55	0.3218	999999
2934.05	0.1768	999999
2934.55	0.1988	999999
2935.05	0.3522	999999
2935.55	0.3876	999999
2936.05	0.2936	999999
2936.56	0.3092	999999
2937.11	0.2646	999999
2937.65	0.286	999999
2938.15	0.3046	999999
2938.65	0.3204	999999
2939.15	0.2552	999999
2939.65	0.1904	999999
2940.15	0.2102	999999
2940.67	0.2932	999999
2941.22	0.3108	999999
2941.75	0.314	999999
2942.25	0.2972	999999
2942.77	0.462	999999
2943.32	0.3474	999999
2943.85	0.2618	999999
2944.35	0.2432	999999
2944.85	0.282	999999
2945.35	0.2962	999999
2945.85	0.3458	999999
2946.35	0.3012	999999
2946.88	0.309	999999
2947.43	0.374	999999
2947.95	0.5098	999999
2948.45	14.7156	999999
2948.95	33.3738	999999
2949.45	52.5402	999999
2950	3.2836	999999
2950.55	0.446	999999
2951.05	19.0296	999999
2951.55	30.9246	999999
2952.05	18.985	999999
2952.55	39.827	999999
2953.05	31.1272	999999
2953.55	8.954	999999
2954.05	48.121	999999
2954.56	51.0352	999999
2955.11	53.83	999999
2955.65	53.8326	999999
2956.15	37.767	999999
2956.67	0.5114	999999
2957.22	0.7058	999999
2957.75	9.5844	999999
2958.25	3.603	999999
2958.75	49.6756	999999
2959.25	55.7338	999999
2959.75	56.265	999999
2960.25	57.1806	999999
2960.78	53.0638	999999
2961.33	44.634	999999
2961.85	44.1946	999999
2962.35	44.1094	999999
2962.85	45.0846	999999
2963.35	35.9144	999999
2963.85	0.1838	999999
2964.35	0.1794	999999
2964.89	0.256	999999
2965.44	0.2294	999999
2965.95	0.287	999999
2966.45	0.3684	999999
2966.95	0.3346	999999
2967.45	0.3146	999999
2967.95	3.6264	999999
2968.45	7.3804	999999
2969	29.4552	999999
2969.55	44.961	999999
2970.05	9.2416	999999
2970.55	3.8238	999999
2971.05	0.6496	999999
2971.55	0.609	999999
2972.05	0.573	999999
2972.56	0.6068	999999
2973.11	0.419	999999
2973.65	0.7528	999999
2974.15	9.8006	999999
2974.65	11.586	999999
2975.15	46.2254	999999
2975.68	50.18	999999
2976.23	30.074	999999
2976.75	47.1932	999999
2977.25	54.1496	999999
2977.75	54.0578	999999
2978.25	54.7346	999999
2978.75	50.0676	999999
2979.25	43.2166	999999
2979.75	44.9216	999999
2980.28	29.3046	999999
2980.83	0.6818	999999
2981.35	20.3836	999999
2981.85	44.5672	999999
2982.35	52.9174	999999
2982.85	50.043	999999
2983.35	31.7858	999999
2983.85	48.4482	999999
2984.35	1.5064	999999
2984.89	0.3606	999999
2985.44	2.431	999999
2985.95	19.5626	999999
2986.45	52.857	999999
2986.95	48.1036	999999
2987.45	47.882	999999
2987.95	48.2618	999999
2988.45	46.5262	999999
2989	47.94	999999
2989.55	49.5222	999999
2990.05	47.0546	999999
2990.55	49.5738	999999
2991.05	48.8108	999999
2991.55	49.9312	999999
2992.05	46.8114	999999
2992.56	47.3832	999999
2993.11	49.4118	999999
2993.65	49.0418	999999
2994.15	48.6372	999999
2994.65	50.0246	999999
2995.15	51.9174	999999
2995.65	8.5334	999999
2996.15	30.557	999999
2996.67	48.995	999999
2997.22	53.346	999999
2997.75	55.2508	999999
2998.25	54.1332	999999
2998.78	47.425	999999
2999.33	43.519	999999
2999.89	40.2538	999999
3000.44	42.8372	999999
3000.95	46.559	999999
3001.45	47.3302	999999
3001.95	50.2822	999999
3002.45	49.3594	999999
3002.95	46.776	999999
3003.45	24.7242	999999
3003.95	29.0276	999999
3004.45	34.198	999999
3005	2.7208	999999
3005.55	12.4294	999999
3006.05	2.077	999999
3006.55	5.3092	999999
3007.05	4.5784	999999
3007.55	2.623	999999
3008.07	2.7458	999999
3008.62	5.5682	999999
3009.15	3.1254	999999
3009.65	19.9118	999999
3010.15	17.984	999999
3010.65	24.5116	999999
3011.15	22.7424	999999
3011.65	1.6022	999999
3012.15	0.8392	999999
3012.69	0.5926	999999
3013.24	0.3152	999999
3013.75	0.235	999999
3014.25	0.3422	999999
3014.75	0.4316	999999
3015.25	0.4596	999999
3015.75	0.4622	999999
3016.25	0.4384	999999
3016.78	0.4798	999999
3017.33	0.3462	999999
3017.85	0.3708	999999
3018.35	1.6784	999999
3018.85	9.7258	999999
3019.35	4.2188	999999
3019.85	2.0466	999999
3020.35	1.4784	999999
3020.89	1.494	999999
3021.45	4.2904	999999
3022.01	2.3056	999999
3022.55	0.7146	999999
3023.05	1.0636	999999
3023.55	0.8848	999999
3024.05	2.2098	999999
3024.56	12.3076	999999
3025.11	1.4298	999999
3025.65	2.2516	999999
3026.15	21.5972	999999
3026.65	16.605	999999
3027.15	2.925	999999
3027.68	4.653	999999
3028.23	1.2286	999999
3028.75	0.6112	999999
3029.25	0.2314	999999
3029.75	0.2092	999999
3030.25	0.3482	999999
3030.78	0.3836	999999
3031.33	0.3506	999999
3031.85	0.518	999999
3032.35	0.5934	999999
3032.85	0.9668	999999
3033.35	1.0158	999999
3033.85	1.1754	999999
3034.35	0.8952	999999
3034.89	0.577	999999
3035.44	0.5636	999999
3035.95	6.8122	999999
3036.45	22.727	999999
3036.95	1.0982	999999
3037.45	0.8806	999999
3037.95	1.1258	999999
3038.46	0.2492	999999
3039.01	0.2314	999999
3039.55	0.2406	999999
3040.05	0.2066	999999
3040.55	0.0944	999999
